Frequency (Hz),Power,Log Power
0.0,0.001993176866523356,0.0008647641866087553
0.1,0.001993182476606899,0.000864766618190487
0.2,0.00199319924918991,0.0008647738879407748
0.30000000000000004,0.0019932272220085615,0.000864786012215231
0.4,0.001993266352186549,0.0008648029724297135
0.5,0.001993316683898298,0.000864824787730207
0.6000000000000001,0.001993378205627987,0.0008648514531245418
0.7000000000000001,0.0019934509803079177,0.0008648829958886115
0.8,0.0019935349728003866,0.0008649194007917142
0.9,0.001993630227381293,0.000864960687023058
1.0,0.0019937367156735745,0.0008650068422817646
1.1,0.00199385454832382,0.0008650579145239661
1.2000000000000002,0.001993983709852731,0.00086511389703869
1.3,0.0019941241336651483,0.0008651747609595839
1.4000000000000001,0.001994276029007564,0.0008652405969783794
1.5,0.0019944392370531577,0.0008653113362526369
1.6,0.001994613970530139,0.0008653870709825771
1.7000000000000002,0.0019948001730328304,0.000865467776717641
1.8,0.0019949978711999846,0.0008655534650012524
1.9000000000000001,0.0019952071216299615,0.0008656441603618379
2.0,0.001995428008785396,0.0008657398994047814
2.1,0.0019956605138879272,0.0008658406739876728
2.2,0.001995904688466971,0.000865946506441384
2.3000000000000003,0.001996160648918173,0.0008660574472115582
2.4000000000000004,0.0019964284445954557,0.0008661735176855846
2.5,0.001996707981589869,0.0008662946771566095
2.6,0.001996999434051228,0.0008664210011018405
2.7,0.001997303051952781,0.0008665525978624294
2.8000000000000003,0.001997618504149598,0.0008666893239059947
2.9000000000000004,0.0019979462849169204,0.000866831393460407
3.0,0.0019982861183261485,0.0008669786869253263
3.1,0.0019986383577120866,0.00086713135744076
3.2,0.0019990020540536905,0.0008672889936684793
3.3000000000000003,0.0019993785470249913,0.000867452176255321
3.4000000000000004,0.0019997677484955277,0.0008676208669968773
3.5,0.0020001691971434444,0.0008677948659370245
3.6,0.0020005839274965286,0.0008679746214621451
3.7,0.002001010918752015,0.000868159691121317
3.8000000000000003,0.002001452281894729,0.000868350989865615
3.9000000000000004,0.0020019034623619094,0.0008685465436172491
4.0,0.002002369044457576,0.0008687483393297049
4.1000000000000005,0.002002848842853964,0.0008689562966685341
4.2,0.0020033393764636817,0.0008691689068301697
4.3,0.002003843818215066,0.0008693875450376042
4.4,0.002004364024315119,0.0008696130158094176
4.5,0.0020048968870968282,0.0008698439721930074
4.6000000000000005,0.0020054406267828655,0.0008700796427789086
4.7,0.002006000734113826,0.0008703224073840292
4.800000000000001,0.0020065716123129377,0.0008705698402146952
4.9,0.002007152940317137,0.0008708218021062706
5.0,0.002007762065770764,0.0008710858119410463
5.1000000000000005,0.002008374869214048,0.0008713514157443504
5.2,0.0020089980577221774,0.0008716215205188131
5.300000000000001,0.0020096421913084975,0.0008719007032135219
5.4,0.002010300385260294,0.0008721859798170224
5.5,0.0020109795926646044,0.0008724803639442877
5.6000000000000005,0.0020116708632608757,0.0008727799763318179
5.7,0.002012361581342746,0.000873079349040566
5.800000000000001,0.002013080797704581,0.0008733910733237202
5.9,0.0020138206334260897,0.0008737117342601232
6.0,0.002014548392223077,0.0008740271605630441
6.1000000000000005,0.0020153314963198363,0.0008743665744523848
6.2,0.0020161088907259973,0.0008747035133786543
6.300000000000001,0.0020169038559105954,0.0008750480675758834
6.4,0.00201769627575733,0.000875391518299554
6.5,0.002018515483102185,0.000875746578978912
6.6000000000000005,0.002019353271563157,0.0008761096927815127
6.7,0.002020207595738451,0.0008764799731715603
6.800000000000001,0.002021087698857012,0.0008768614263170754
6.9,0.002021972840899308,0.0008772450630883171
7.0,0.002022919834064011,0.000877655506893608
7.1000000000000005,0.0020238260166384327,0.0008780482622946801
7.2,0.00202473156539795,0.000878440742634316
7.300000000000001,0.002025751860398783,0.0008788829555351211
7.4,0.0020267105863145188,0.0008792984829553633
7.5,0.0020276917018171047,0.00087972371397545
7.6000000000000005,0.00202870696785796,0.0008801637459420884
7.7,0.002029733992229746,0.0008806088736971711
7.800000000000001,0.0020308038664509608,0.0008810725727340285
7.9,0.0020318560731830667,0.0008815286139414672
8.0,0.0020329161946293856,0.0008819880850130572
8.1,0.002033995145414944,0.0008824557164776374
8.200000000000001,0.0020350926256105504,0.0008829313783157053
8.3,0.002036280153452659,0.0008834460673591385
8.4,0.0020374412710095807,0.0008839493092732972
8.5,0.002038549142612647,0.0008844294732253581
8.6,0.002039901053409465,0.000885015405776099
8.700000000000001,0.0020412724457221174,0.0008856097810157472
8.8,0.0020425072835758788,0.0008861449714816869
8.9,0.0020434899736417596,0.0008865708782277717
9.0,0.002044980321063859,0.0008872168074580904
9.1,0.002045852783891901,0.000887594939811774
9.200000000000001,0.0020473526770291954,0.0008882450047002457
9.3,0.002048599505533244,0.0008887853887458063
9.4,0.002050168889368333,0.0008894655695336247
9.5,0.0020510058936921653,0.0008898283320166282
9.600000000000001,0.0020532877989133,0.0008908173213110746
9.700000000000001,0.0020543543781231,0.0008912795813769494
9.8,0.002055794899975779,0.0008919039090287109
9.9,0.002057275869166752,0.0008925457657751458
10.0,0.0020587342122130995,0.0008931778153516716
10.100000000000001,0.0020598838289673112,0.0008936760615215082
10.200000000000001,0.0020616101809090618,0.0008944242647859417
10.3,0.002063504866123095,0.0008952454224344634
10.4,0.0020644909569078385,0.0008956727941266796
10.5,0.002066598408980508,0.0008965861623298633
10.600000000000001,0.0020686166700463475,0.0008974608734145593
10.700000000000001,0.0020689059072966642,0.0008975862282271734
10.8,0.002070748469757996,0.0008983847900516909
10.9,0.002073118642188893,0.0008994120145187856
11.0,0.0020742737184182786,0.0008999126196484166
11.100000000000001,0.0020773232795264635,0.0009012342837016264
11.200000000000001,0.0020787604541938785,0.000901857146394498
11.3,0.0020808345173369608,0.0009027560310745287
11.4,0.0020814753565655984,0.0009030337660059573
11.5,0.0020827830286409715,0.0009036005007574244
11.600000000000001,0.002085278868093551,0.0009046821758151376
11.700000000000001,0.002086895385845392,0.0009053827590769536
11.8,0.0020889505221028675,0.0009062734337529992
11.9,0.00209032003770542,0.0009068669665549534
12.0,0.002089727994250696,0.0009066103816182076
12.100000000000001,0.002097104366567314,0.0009098072071256015
12.200000000000001,0.002093576554663271,0.0009082783014603323
12.3,0.0020995907539578373,0.0009108847703469792
12.4,0.0021019521465099984,0.0009119081601938192
12.5,0.002104031832757219,0.0009128094610266429
12.600000000000001,0.002103568045421699,0.0009126084636044557
12.700000000000001,0.0021081629932364412,0.0009145998305340567
12.8,0.002110474546528887,0.000915601612296468
12.9,0.0021102953492063135,0.0009155239517817001
13.0,0.002115584463404724,0.0009178161416328141
13.100000000000001,0.0021145828621958558,0.0009173820698528684
13.200000000000001,0.0021170943635990085,0.0009184704981150658
13.3,0.002121725333567656,0.0009204774492662613
13.4,0.0021235255374381233,0.0009212576118804756
13.5,0.002123565476011982,0.0009212749202276212
13.600000000000001,0.002130764516527182,0.0009243947873263295
13.700000000000001,0.0021292491375716517,0.0009237380654301162
13.8,0.002132300562421734,0.0009250604646693346
13.9,0.0021330262212492135,0.0009253749436161127
14.0,0.0021345075205352494,0.0009260168939497678
14.100000000000001,0.002137655176217403,0.0009273809896241094
14.200000000000001,0.0021439735992731506,0.0009301191839258569
14.3,0.0021432603743763777,0.0009298100968530682
14.4,0.0021481238994128524,0.0009319177765073528
14.5,0.0021487933757377577,0.0009322079030561943
14.600000000000001,0.0021519484784600844,0.0009335752065486047
14.700000000000001,0.0021585908967928047,0.0009364537681005443
14.8,0.0021571753489098076,0.0009358403271998928
14.9,0.0021613993417350617,0.0009376708313909833
15.0,0.0021585582443205014,0.0009364396178563691
15.100000000000001,0.002167037705284414,0.000940114253468133
15.200000000000001,0.0021754155862429786,0.0009437448381163591
15.3,0.0021762307549573453,0.00094409809277114
15.4,0.0021675835869754147,0.0009403508141737535
15.5,0.0021786982480198626,0.0009451673830507113
15.600000000000001,0.002170135556906192,0.0009414567220737094
15.700000000000001,0.0021894206152428724,0.0009498138997001294
15.8,0.0021890751855091614,0.000949664209182547
15.9,0.0021921554938570177,0.0009509990459866429
16.0,0.002185776880534641,0.0009482349000405236
16.1,0.0021955170707262128,0.0009524557644695218
16.2,0.002203904440947006,0.0009560903580195897
16.3,0.0022020117969171063,0.0009552701999350887
16.400000000000002,0.0021897797754739817,0.000949969540216116
16.5,0.00219527816220733,0.0009523522351062681
16.6,0.0022157800195177772,0.0009612364841355184
16.7,0.0021970087407769765,0.000953102168867409
16.8,0.002190772140074106,0.0009503995767871912
16.900000000000002,0.0021862675600964093,0.0009484475346425655
17.0,0.002134104515939257,0.0009258422440339459
17.1,0.002247808815644611,0.0009751154385835378
17.2,0.00224472155748563,0.0009737776643965012
17.3,0.002208791831297508,0.0009582082518685457
17.400000000000002,0.00222263610824264,0.0009642074524394067
17.5,0.0021304264652992925,0.0009242482856792009
17.6,0.002070774703459063,0.0008983961596595232
17.7,0.002461017470835184,0.001067493285758459
17.8,0.0022468453540239273,0.0009746979507498555
17.900000000000002,0.0020992063087044628,0.0009107181576812153
18.0,0.002170414566240701,0.0009415776318805547
18.1,0.0023595025448145076,0.0010235119200459784
18.2,0.002805533322993883,0.0012167216613413517
18.3,0.0026035585951351805,0.001129241744706827
18.400000000000002,0.002109181114781584,0.0009150410646848648
18.5,0.0022866883236538544,0.0009919623981282737
18.6,0.0024004801561239952,0.0010412660159271167
18.7,0.002168843296679737,0.0009408967155165133
18.8,0.0037212167455300356,0.0016131044009888604
18.900000000000002,0.0026087366532535545,0.0011314847012985838
19.0,0.002091942018863945,0.0009075699140664863
19.1,0.0022664776559599923,0.00098320495372192
19.200000000000003,0.0024259596741325416,0.0010523049905270443
19.3,0.002387252860182915,0.0010355351931141527
19.400000000000002,0.002159631757206831,0.0009369048341330313
19.5,0.002419028001728901,0.0010493018784722263
19.6,0.0022809903099261972,0.0009894934209556398
19.700000000000003,0.0022533174335464096,0.0009775024288689062
19.8,0.002003625456569315,0.0008692929014205311
19.900000000000002,0.003269284243177451,0.0014175162353396878
20.0,0.002633234317084639,0.0011420960892268215
20.1,0.0025926713198146946,0.0011245257139023458
20.200000000000003,0.0023991719417010677,0.0010406992258198164
20.3,0.002514145741683212,0.0010905093462973726
20.400000000000002,0.0023746780550578583,0.0010300869966049031
20.5,0.0024838209710399636,0.0010773722950135367
20.6,0.002407261755308157,0.0010442041641022498
20.700000000000003,0.002050791383445679,0.0008897353620722138
20.8,0.002817616178136913,0.0012219544662334905
20.900000000000002,0.0024870101657218178,0.0010787539107761782
21.0,0.002505113536210672,0.0010865965290233566
21.1,0.0024150965223126144,0.0010475985756450185
21.200000000000003,0.0024525346514129224,0.0010638182727762042
21.3,0.0022855295592224935,0.0009914603009787185
21.400000000000002,0.00249681474860148,0.0010830014026403851
21.5,0.002564568450059355,0.0011123521835485189
21.6,0.0022447985631594545,0.0009738110326320417
21.700000000000003,0.0023743926393810285,0.0010299633357884657
21.8,0.002424821539274175,0.0010518119007736535
21.900000000000002,0.002669938164942645,0.0011579942125727913
22.0,0.0026166510048819514,0.001134912903695455
22.1,0.0026407718503953345,0.0011453609888005568
22.200000000000003,0.0023657645636293396,0.0010262250700835206
22.3,0.002633204939521676,0.0011420833642210326
22.400000000000002,0.002094197530509693,0.0009085474243309801
22.5,0.0030165926800949597,0.0013081175167295295
22.6,0.0027724464416261415,0.001202392176127892
22.700000000000003,0.0019120440144905582,0.000829597303873015
22.8,0.0027103457398813336,0.0011754959173279473
22.900000000000002,0.002770759780127974,0.0012016616929558935
23.0,0.0025310976139569508,0.0010978529258110642
23.1,0.002049985270294338,0.0008893859879314564
23.200000000000003,0.002942132402587646,0.0012758758885714567
23.3,0.0025964962742956745,0.0011261825716706248
23.400000000000002,0.003084439904825776,0.001337493579894531
23.5,0.002728705395895958,0.001183447789305796
23.6,0.0025917872491459876,0.0011241427595946036
23.700000000000003,0.002528056134794273,0.001096535361075145
23.8,0.002705503093587557,0.0011733984625138642
23.900000000000002,0.002650950071388793,0.0011497696692580922
24.0,0.0022838207821843865,0.0009907198801613305
24.1,0.0026108686839823917,0.0011324082202770782
24.200000000000003,0.0020268404124272068,0.0008793547516756736
24.3,0.002040829113065594,0.0008854176362665347
24.400000000000002,0.003673318785771382,0.0015923792079554331
24.5,0.0028339001677827875,0.001229006585496645
24.6,0.002414883777650614,0.0010475064044048472
24.700000000000003,0.0021814568771762956,0.0009463628342945378
24.8,0.0013128632847579178,0.0005697953301677222
24.900000000000002,0.004597450618734924,0.0019920717096338983
25.0,0.003580632224023369,0.0015522714155934906
25.1,0.0029986501990323525,0.0013003485622861883
25.200000000000003,0.003403714849683561,0.00147570456071032
25.3,0.0030805907727302073,0.0013358270601380477
25.400000000000002,0.003424187886891554,0.001484565636515983
25.5,0.0027534037174336014,0.0011941448129370797
25.6,0.0027453801198965384,0.0011906697630756202
25.700000000000003,0.0033154033415155816,0.0014374797784146762
25.8,0.0031083201344868755,0.0013478326182715416
25.900000000000002,0.0027105057083765074,0.001175565202969071
26.0,0.003913785469446353,0.0016964178861076616
26.1,0.003145039767588735,0.001363730046138016
26.200000000000003,0.002559267751977813,0.0011100560022499772
26.3,0.0032552566168476773,0.0014114439241516613
26.400000000000002,0.003475929337337335,0.001506959403127952
26.5,0.003268924903936014,0.0014173606848009621
26.6,0.003186200068160865,0.0013815493284773735
26.700000000000003,0.0032818710427150203,0.0014229647658390398
26.8,0.0033275883075724114,0.0014427541232212393
26.900000000000002,0.0030163274213149058,0.0013080026627574947
27.0,0.003071036978600332,0.0013316906229769185
27.1,0.0028785401795159427,0.001248338280689826
27.200000000000003,0.0029386082903891104,0.0012743498731405578
27.3,0.0031791249749391817,0.0013784864027910002
27.400000000000002,0.003342977485687095,0.001449415341310759
27.5,0.0031543264689111805,0.0013677505459769711
27.6,0.003455846897689076,0.0014982678344099695
27.700000000000003,0.0032863271870778223,0.0014248937099028964
27.8,0.0034242984720826205,0.001484613499160977
27.900000000000002,0.0038874169201145196,0.0016850106656541384
28.0,0.0030522540043293597,0.0013235581795558644
28.1,0.0036525017997816184,0.0015833715002352658
28.200000000000003,0.003536339541344523,0.0015331035564704108
28.3,0.0032546167292719255,0.0014111669261194996
28.400000000000002,0.002118021932693358,0.0009188724850236074
28.5,0.0029235247627986127,0.0012678183247431202
28.6,0.0025227798077283757,0.001094249653712142
28.700000000000003,0.003014746173918254,0.0013073180003632815
28.8,0.0033646310911594397,0.0014587879487899663
28.900000000000002,0.0058750026134641335,0.002544015463394979
29.0,0.0035532581808770916,0.001540425274244017
29.1,0.002906940676600912,0.001260636883193291
29.200000000000003,0.002068516175635796,0.0008974173193410802
29.3,0.002844075910899135,0.0012334133438471283
29.400000000000002,0.004883417488511821,0.0021156795890227304
29.5,0.003510696667204994,0.0015220060998202372
29.6,0.00545489094096164,0.002362591039297295
29.700000000000003,0.002880110408777239,0.0012490182646981696
29.8,0.0035976801523206385,0.001559648758345662
29.900000000000002,0.003111884856440648,0.0013493759574027327
30.0,0.0027577509826717957,0.0011960276180262635
30.1,0.004403798885677958,0.0019083466453922871
30.200000000000003,0.002203509241731239,0.0009559191025777055
30.3,0.0028836762280400503,0.0012505624302071856
30.400000000000002,0.003940391038691994,0.0017079273393807925
30.5,0.003234308984732662,0.0014023759068613308
30.6,0.002758675767779145,0.0011964281423637608
30.700000000000003,0.004980785425717542,0.002157758409884917
30.8,0.0025925546712292527,0.0011244751850670747
30.900000000000002,0.0028285301004868945,0.001226680979194318
31.0,0.005404114680131248,0.0023406582734162846
31.1,0.0036890958478858885,0.0015992059682526033
31.200000000000003,0.003120161563849069,0.0013529593199177504
31.3,0.004514796413303285,0.001956338250342729
31.400000000000002,0.003324392634903035,0.0014413708609321517
31.5,0.0037656847687178125,0.0016323445933708407
31.6,0.004145242983122589,0.0017965351834634347
31.700000000000003,0.004535898301247545,0.001965461398420993
31.8,0.004575810194036214,0.001982716302396167
31.900000000000002,0.003303670763690293,0.0014324011923752733
32.0,0.0032003033127964626,0.0013876547935131388
32.1,0.0028295076507825474,0.0012271043262367062
32.2,0.004391774299784217,0.001903147299704192
32.300000000000004,0.0033440193138454884,0.0014498662937722148
32.4,0.005740280329385455,0.0024858441568351764
32.5,0.004723950063809516,0.0020467548588937335
32.6,0.00295192655268317,0.0012801169354228592
32.7,0.004076551928261373,0.0017668251721792247
32.800000000000004,0.007110295676984763,0.0030770357778691286
32.9,0.006286138172068418,0.0027214902225299762
33.0,0.0044442870395743,0.0019258529784447105
33.1,0.0037726281646974055,0.001635348748798661
33.2,0.0022970744482579087,0.0009964627205271122
33.300000000000004,0.0033702723419266702,0.0014612296904221432
33.4,0.004787432092947233,0.0020741942605398953
33.5,0.005748599929931182,0.00248943667643006
33.6,0.002109379636567385,0.0009151271001281462
33.7,0.004879466926595151,0.002113972216223626
33.800000000000004,0.002136911306367735,0.0009270586200483111
33.9,0.005421656615325542,0.0023482356237423995
34.0,0.002032928266273021,0.0008819933170250236
34.1,0.0037510602201621026,0.0016260170140327938
34.2,0.003829633893650397,0.001660012273039127
34.300000000000004,0.0026349305470147934,0.0011428308171914662
34.4,0.006217529145806461,0.0026918788265262953
34.5,0.004377122182932948,0.001896811744122856
34.6,0.004130956307862553,0.0017903561287772039
34.7,0.0035441087393095383,0.0015364657732743333
34.800000000000004,0.0036662383122128724,0.0015893154407069972
34.9,0.004585838244505731,0.001987051570279172
35.0,0.006227805735729166,0.0026963142923935556
35.1,0.0031653052679680074,0.0013725035591788525
35.2,0.0035446630787072278,0.0015367056695309524
35.300000000000004,0.007157648331527203,0.0030974551035464096
35.4,0.006678896489207151,0.0028909643754162374
35.5,0.0008312520491950598,0.00036085821674031887
35.6,0.003446045036144646,0.0014940255798201805
35.7,0.005677363838150013,0.0024586749758821625
35.800000000000004,0.002385803915602398,0.001034907422670226
35.9,0.005097672956082978,0.002208267492539422
36.0,0.004315551765957065,0.001870187768542808
36.1,0.006768526732283375,0.002929630316782771
36.2,0.002228477934707726,0.0009667388915752626
36.300000000000004,0.004622430794872094,0.002002870679676211
36.4,0.006604922022694086,0.00285904964752005
36.5,0.024466369335808553,0.010497706171463374
36.6,0.003961063933695203,0.0017168701330651447
36.7,0.004045098766614867,0.0017532204838997085
36.800000000000004,0.008913669630716464,0.0038540062695762585
36.9,0.0049843714439893804,0.0021593080764969593
37.0,0.0005679037141683405,0.000246567442657366
37.1,0.03186217399405296,0.013621692377212571
37.2,0.014352706343030775,0.006188992259796675
37.300000000000004,0.01286192046987238,0.005550243716293566
37.4,0.0064499022553238744,0.0027921620209379154
37.5,0.005593618894884188,0.0024225088231549625
37.6,0.010166753604871613,0.004393071003150163
37.7,0.006948869508218446,0.0030074186626502866
