Frequency (Hz),Power,Log Power
0.0,0.20496583928647338,0.0809747348613621
0.1,0.20496577089382376,0.08097471021124326
0.2,0.20496555702236127,0.08097463312755632
0.30000000000000004,0.2049652000746452,0.08097450447620569
0.4,0.20496470622928759,0.08097432648404657
0.5,0.20496407417131368,0.08097409867707354
0.6000000000000001,0.20496330401294102,0.08097382109565392
0.7000000000000001,0.20496240904889318,0.08097349853139774
0.8,0.20496138865187224,0.080973130758113
0.9,0.204960253890493,0.08097272176505978
1.0,0.20495900036761017,0.08097226996729104
1.1,0.2049576498372892,0.08097178320533936
1.2000000000000002,0.2049561998446046,0.08097126059427441
1.3,0.20495466404966708,0.08097070705739745
1.4000000000000001,0.20495304529710437,0.08097012361986347
1.5,0.2049513654785107,0.08096951817182776
1.6,0.20494962701850286,0.08096889158709195
1.7000000000000002,0.20494785029522822,0.0809682512103777
1.8,0.2049460394992975,0.0809675985520313
1.9000000000000001,0.20494421054824966,0.08096693934910894
2.0,0.2049423830655158,0.08096628067440675
2.1,0.20494056264483312,0.08096562454406762
2.2,0.20493877481048203,0.0809649801577856
2.3000000000000003,0.2049370321851332,0.0809643520651919
2.4000000000000004,0.20493535473947788,0.08096374746438753
2.5,0.20493375459135307,0.08096317072310463
2.6,0.20493225531004802,0.08096263033654799
2.7,0.20493087661858153,0.08096213341364127
2.8000000000000003,0.20492964069308478,0.08096168794750788
2.9000000000000004,0.20492856162895512,0.08096129901873468
3.0,0.2049276756762338,0.08096097969314822
3.1,0.204926991565708,0.08096073311775892
3.2,0.20492654016927794,0.08096057041992179
3.3000000000000003,0.20492634073360336,0.0809604985368507
3.4000000000000004,0.20492642500860295,0.08096052891228925
3.5,0.20492681603883145,0.08096066985221677
3.6,0.20492754334604452,0.08096093199711193
3.7,0.2049286294833279,0.08096132347560274
3.8000000000000003,0.204930104706748,0.08096185519257172
3.9000000000000004,0.20493199994862996,0.08096253829646351
4.0,0.20493434303505464,0.08096338281591821
4.1000000000000005,0.20493716785954066,0.08096440096620633
4.2,0.2049405006720163,0.08096560220732021
4.3,0.2049443749643874,0.08096699860912761
4.4,0.20494882524437372,0.08096860260721417
4.5,0.2049538855379482,0.08097042646306232
4.6000000000000005,0.20495959172298658,0.08097248310509385
4.7,0.20496597626353674,0.08097478423071142
4.800000000000001,0.204973075496321,0.08097734293245264
4.9,0.2049809268829414,0.08098017270752815
5.0,0.20498956660566217,0.08098328659121509
5.1000000000000005,0.2049990255182944,0.08098669569744442
5.2,0.20500936027190172,0.0809904204367357
5.300000000000001,0.20502059573044887,0.08099446976204523
5.4,0.20503277720661867,0.08099885999500972
5.5,0.20504595224525562,0.0810036082602917
5.6000000000000005,0.20506015331392738,0.08100872624721109
5.7,0.20507542213812358,0.08101422898005414
5.800000000000001,0.20509181113792924,0.08102013533549816
5.9,0.20510935167994515,0.08102645660089691
6.0,0.20512810587636263,0.08103321514163009
6.1000000000000005,0.20514809946278167,0.08104042021151897
6.2,0.20516939471653617,0.0810480942305798
6.300000000000001,0.20519202667817552,0.08105624980091684
6.4,0.20521604819801934,0.08106490593978746
6.5,0.20524151070398755,0.08107408114869911
6.6000000000000005,0.20526845803925411,0.08108379119276489
6.7,0.20529694078013858,0.08109405425984638
6.800000000000001,0.20532699450432443,0.08110488312981995
6.9,0.20535873296567714,0.08111631874622849
7.0,0.20539212098772522,0.08112834838729592
7.1000000000000005,0.20542724963539555,0.0811410048127643
7.2,0.20546419640507957,0.0811543158875749
7.300000000000001,0.20550296561694978,0.08116828310790841
7.4,0.20554366222791648,0.0811829442209475
7.5,0.20558625082173626,0.08119828639823108
7.6000000000000005,0.20563089568283938,0.08121436874639516
7.7,0.20567763827192906,0.08123120611766321
7.800000000000001,0.20572650829341885,0.08124880912352736
7.9,0.20577751269360187,0.08126718017276705
8.0,0.2058307865854527,0.08128636783045673
8.1,0.20588620697516435,0.08130632769266709
8.200000000000001,0.2059441724973472,0.08132720321247458
8.3,0.2060045372867103,0.0813489417302306
8.4,0.20606729398066803,0.08137154046509511
8.5,0.20613274785468588,0.08139510920385569
8.6,0.20620068912873302,0.08141957225690434
8.700000000000001,0.20627132516706367,0.08144500413051564
8.8,0.20634459757334464,0.08147138363123392
8.9,0.2064207860271474,0.08149881126701415
9.0,0.2064996192313958,0.08152718918245086
9.1,0.20658144177850643,0.08155664122307495
9.200000000000001,0.20666632697500886,0.0815871935541939
9.3,0.2067542126326208,0.08161882356274794
9.4,0.2068451727330672,0.0816515576361451
9.5,0.2069394136015951,0.08168546976684972
9.600000000000001,0.20703690122605012,0.08172054744107349
9.700000000000001,0.20713760262334355,0.08175677850980533
9.8,0.20724187815376313,0.08179429232057736
9.9,0.20734952444494686,0.08183301538588697
10.0,0.20746014242221578,0.0818728038444309
10.100000000000001,0.20757514753452133,0.0819141664579798
10.200000000000001,0.20769303859739874,0.08195656294082838
10.3,0.20781506581904627,0.08200044252786161
10.4,0.20794106905604479,0.08204574719234328
10.5,0.2080703630329976,0.08209223013529772
10.600000000000001,0.2082037262794122,0.082140170824081
10.700000000000001,0.20834169659128804,0.08218976206669712
10.8,0.20848300966670816,0.08224054894320224
10.9,0.20862929673356015,0.08229311717995069
11.0,0.20877885303850618,0.08234685363985375
11.100000000000001,0.20893410204946816,0.08240262848999261
11.200000000000001,0.20909043157658422,0.0824587842900149
11.3,0.20925331198016264,0.0825172855355717
11.4,0.20942111189529442,0.08257754546688208
11.5,0.20959349148333598,0.08263944133464685
11.600000000000001,0.20976950091846114,0.08270263146098396
11.700000000000001,0.20994918728011225,0.08276713217824704
11.8,0.21013851379933252,0.08283508299069602
11.9,0.21032706592284273,0.0829027453013219
12.0,0.21052701332100526,0.0829744853145965
12.100000000000001,0.21072562859778207,0.08304573563967696
12.200000000000001,0.21092906044389398,0.08311870172259325
12.3,0.21113962533210576,0.08319421334602523
12.4,0.21135625881557188,0.08327188755577829
12.5,0.21157831718872877,0.08335149245088984
12.600000000000001,0.21180710460958105,0.08343349435929981
12.700000000000001,0.21203690765702218,0.08351584470463733
12.8,0.21227378028732247,0.08360071210805413
12.9,0.21251935770225794,0.08368868078041652
13.0,0.21276575690503002,0.0837769259222623
13.100000000000001,0.2130198509217293,0.08386790810088902
13.200000000000001,0.2132843336682283,0.08396258987949505
13.3,0.21354857416365264,0.0840571643260021
13.4,0.21382222322942596,0.08415508449532641
13.5,0.21408720175318316,0.08424988103918706
13.600000000000001,0.21438184445556732,0.08435526570579929
13.700000000000001,0.2146760316226454,0.08446046193450317
13.8,0.2149558907923159,0.08456051107570363
13.9,0.21526594821489548,0.08467132913047438
14.0,0.21558332155171647,0.08478473269801105
14.100000000000001,0.21590415100161797,0.08489934111126074
14.200000000000001,0.21623323122607763,0.08501686549742646
14.3,0.21653809402289875,0.08512571274477426
14.4,0.21686106085519083,0.08524099404882557
14.5,0.21723381825042318,0.08537400980141038
14.600000000000001,0.21759264502770356,0.08550201604153505
14.700000000000001,0.217922408434551,0.08561962108659447
14.8,0.21835693162995987,0.08577453848454855
14.9,0.21855312907502522,0.08584446922948126
15.0,0.21896737906654903,0.08599208356673775
15.100000000000001,0.21940907057736128,0.08614942119848477
15.200000000000001,0.21981529696098787,0.0862940752785206
15.3,0.22019020062230085,0.08642753284064174
15.4,0.2205750342244626,0.08656448260448513
15.5,0.220999142845889,0.08671535906574146
15.600000000000001,0.22142401787247937,0.08686645563604554
15.700000000000001,0.22184684932650361,0.087016773287319
15.8,0.22227232638358066,0.08716797895827642
15.9,0.22273447156927467,0.08733215609393377
16.0,0.2232111608521515,0.08750143502230626
16.1,0.22363803654713313,0.08765296848081856
16.2,0.22413749015931408,0.08783019874428065
16.3,0.22455318767573368,0.08797765317034628
16.400000000000002,0.22505662253409692,0.08815616240324683
16.5,0.22554737157969898,0.08833010287332296
16.6,0.226036488842978,0.08850339568593556
16.7,0.2265111837268638,0.0886715125984339
16.8,0.22702909451722528,0.08885486055787627
16.900000000000002,0.22757536865656833,0.08904816571298312
17.0,0.22813143418474724,0.08924484733174379
17.1,0.22860061840496876,0.0894107295817847
17.2,0.22917014092377636,0.08961200180436771
17.3,0.2296871521228963,0.08979463551377731
17.400000000000002,0.23030405327218537,0.09001245480519972
17.5,0.2308281752905787,0.0901974292663291
17.6,0.23145165835385745,0.09041736792320258
17.7,0.23199062736300588,0.09060740385112506
17.8,0.2325609232345108,0.09080839486257894
17.900000000000002,0.2332005364567791,0.09103370497773391
18.0,0.23380623400935155,0.09124696025795384
18.1,0.23445368837370714,0.09147480163043098
18.2,0.23502032163479328,0.09167410375053749
18.3,0.23563869632745907,0.09189150058306572
18.400000000000002,0.23643724353770676,0.09217207825741607
18.5,0.23689007325886402,0.0923311040766049
18.6,0.23777126678930888,0.09264039690608641
18.7,0.23844885056886903,0.09287807440637975
18.8,0.23906232738783575,0.09309315283272042
18.900000000000002,0.23969169427099063,0.09331369151298646
19.0,0.24033059419896483,0.09353745621109902
19.1,0.24107381835645425,0.09379761385282309
19.200000000000003,0.24183997470188912,0.09406563562996934
19.3,0.24258143523444545,0.0943248607566816
19.400000000000002,0.2432769575154968,0.09456788465334795
19.5,0.24393712562558034,0.09479842964423885
19.6,0.24476875263960815,0.09508867771235432
19.700000000000003,0.24545999034158444,0.09532978064573597
19.8,0.24629392060018138,0.09562047654594702
19.900000000000002,0.24701367788283182,0.09587121706832619
20.0,0.24769134557494302,0.0961071626760991
20.1,0.24853447492289552,0.09640053872746762
20.200000000000003,0.24943260038466208,0.09671283343524428
20.3,0.25013507670425733,0.09695694092638879
20.400000000000002,0.2509631150794597,0.09724450461459153
20.5,0.25174140303610315,0.09751461734532045
20.6,0.252646421140977,0.09782850194600744
20.700000000000003,0.25348172891775655,0.09811800794878023
20.8,0.2544205775867528,0.09844316959026586
20.900000000000002,0.2553317545914197,0.0987585147798902
21.0,0.2561177569536701,0.09903035500464023
21.1,0.2570683997462865,0.09935890920878042
21.200000000000003,0.2580852543386941,0.09971007213811009
21.3,0.25861665980789245,0.09989347603275388
21.400000000000002,0.2597829908504354,0.10029574036115838
21.5,0.26055232565379755,0.10056087799425494
21.6,0.26163826177936356,0.1009348513954123
21.700000000000003,0.26266009058011114,0.10128645375924443
21.8,0.2635837893320668,0.10160404565287155
21.900000000000002,0.26439095908532373,0.1018813817947226
22.0,0.26534225687991636,0.10220801181223223
22.1,0.2668050038406005,0.10270977015303914
22.200000000000003,0.26733950533266687,0.10289297284820943
22.3,0.26932212631613905,0.10357185056482343
22.400000000000002,0.2700923434677556,0.10383529796425489
22.5,0.2704443107354916,0.10395563273125251
22.6,0.27120103272312995,0.10421423702010234
22.700000000000003,0.2721283858469817,0.10453094342814528
22.8,0.27348604697839646,0.10499419095374854
22.900000000000002,0.27428036432954395,0.10526499101778056
23.0,0.2756892061899125,0.10574488090757525
23.1,0.27673144210154776,0.10609955389670374
23.200000000000003,0.2776261102631718,0.10640377869973244
23.3,0.27867223605962166,0.10675923539890124
23.400000000000002,0.2801024900753398,0.10724474237619953
23.5,0.2808581515300366,0.1075010365215719
23.6,0.282414710624317,0.10802849118196121
23.700000000000003,0.2830340010178688,0.10823816553999371
23.8,0.2843309222559064,0.10867693899206302
23.900000000000002,0.28571860100461893,0.10914592706122817
24.0,0.2860586600811868,0.10926077820605312
24.1,0.287484683652741,0.10974207123193665
24.200000000000003,0.2883226695446542,0.11002464877886256
24.3,0.29017108265685565,0.11064730357624522
24.400000000000002,0.2914090633501094,0.11106383004033928
24.5,0.29211819396587535,0.1113022417081379
24.6,0.2934394627017357,0.11174610709212185
24.700000000000003,0.2946841752975349,0.11216383972718735
24.8,0.2949606611485561,0.1122565754399686
24.900000000000002,0.29816514859981114,0.11332994559470498
25.0,0.2984605857685951,0.11342877133690372
25.1,0.2999845076547433,0.11393817670672303
25.200000000000003,0.30147123184292923,0.11443457276031137
25.3,0.30152633048981703,0.11445295851576008
25.400000000000002,0.3042949387800211,0.1153758090347918
25.5,0.3043538532596053,0.11539542549943053
25.6,0.3059757154019241,0.11593510131501486
25.700000000000003,0.30706522964260297,0.11629726177101482
25.8,0.310552608568122,0.11745445920268986
25.900000000000002,0.3086493957628945,0.11682330897960219
26.0,0.31363131135761146,0.11847349162354384
26.1,0.31289704996351664,0.11823067248270905
26.200000000000003,0.31199672909898024,0.11793275231400543
26.3,0.3139407080788138,0.11857576801282203
26.400000000000002,0.3154309276684487,0.11906804852965733
26.5,0.3170228712151894,0.1195933169179756
26.6,0.31927888306283464,0.12033661099204392
26.700000000000003,0.31991949622374183,0.12054744377253064
26.8,0.32190540376170057,0.12120037792253055
26.900000000000002,0.3219435059525475,0.12121289571140538
27.0,0.32441466081844794,0.12202397959838711
27.1,0.3258299259951231,0.12248781747821441
27.200000000000003,0.32672195068789134,0.12277991462421171
27.3,0.3294209103029162,0.12366250545794462
27.400000000000002,0.32929062580896307,0.12361994210642782
27.5,0.3300107639706102,0.12385515578973444
27.6,0.33353857760211114,0.1250055838034599
27.700000000000003,0.3327689116463056,0.1247548537671477
27.8,0.3359822522747964,0.12580068883539633
27.900000000000002,0.33885670135770046,0.126734096698374
28.0,0.33988707885606256,0.12706819903932248
28.1,0.3394539216392551,0.12692777809950173
28.200000000000003,0.33992473396812595,0.12708040393170142
28.3,0.34336654619931767,0.12819452888009342
28.400000000000002,0.34463569428101365,0.12860463571799424
28.5,0.3443791209621761,0.12852175898835985
28.6,0.34464892836452815,0.12860891008106842
28.700000000000003,0.3486325328134273,0.12989363187253397
28.8,0.35079385356070464,0.13058907582275917
28.900000000000002,0.35958920315635656,0.13340770708178218
29.0,0.3499068696552325,0.13030380746538625
29.1,0.35694717194895453,0.13256294023331494
29.200000000000003,0.35119479153493355,0.13071796248657777
29.3,0.354081122680337,0.13164468360840323
29.400000000000002,0.3624208918935733,0.13431129464665326
29.5,0.3619882257820274,0.13417335317148235
29.6,0.36195729068769933,0.13416348884733692
29.700000000000003,0.3662227207497112,0.1355215035241662
29.8,0.3649852155876752,0.13512794747680185
29.900000000000002,0.36129787014963677,0.13395316503291815
30.0,0.3680138789653566,0.1360905034714461
30.1,0.36958547012066645,0.13658913994413982
30.200000000000003,0.37127181897756123,0.13712355090996367
30.3,0.3739990071562542,0.13798641890496105
30.400000000000002,0.3734608780837224,0.13781629340759063
30.5,0.3772432497441246,0.13901065245137645
30.6,0.3754606938379577,0.13844818418903476
30.700000000000003,0.37557305103818717,0.13848365893534045
30.8,0.3805611701876584,0.14005565421063526
30.900000000000002,0.3807637429880307,0.14011937452773623
31.0,0.3815725194268275,0.14037368618361887
31.1,0.38596891875714384,0.14175349105239884
31.200000000000003,0.38951374009940326,0.14286284562209758
31.3,0.3891777774964249,0.1427578273396532
31.400000000000002,0.3929073258386176,0.14392222251457534
31.5,0.3909779403833596,0.1433202425400354
31.6,0.3921737861542373,0.14369345198205621
31.700000000000003,0.3966643174747224,0.1450920377631319
31.8,0.39702189052869824,0.14520321131198796
31.900000000000002,0.3979764746159895,0.14549986309033058
32.0,0.39791898867374664,0.14548200417690954
32.1,0.39863957424047347,0.14570581235775332
32.2,0.40621593447800747,0.14805201481727182
32.300000000000004,0.408866707850396,0.14886990667688896
32.4,0.4049016669984219,0.14764592781798302
32.5,0.4058822623143176,0.14794895157410304
32.6,0.41231929077741863,0.14993289115421057
32.7,0.4105573209749286,0.14939073932320937
32.800000000000004,0.41500850581287746,0.15075905047267235
32.9,0.4081492927301889,0.1486487013769463
33.0,0.4232270251751508,0.15327418182474856
33.1,0.4154675328103556,0.15089991221541585
33.2,0.4205537200011321,0.15245766175407735
33.300000000000004,0.4153324622824138,0.1508584678286
33.4,0.4320518502488457,0.15595874274089744
33.5,0.42348209705155215,0.1533520094523353
33.6,0.42483653230770213,0.1537650417557542
33.7,0.4302520098934912,0.1554125667401277
33.800000000000004,0.42089631970932667,0.15256238938357092
33.9,0.4314873186291047,0.1557875050130155
34.0,0.4341950543312863,0.1566082205500701
34.1,0.4325794955982088,0.1561187308430691
34.2,0.44186639344208184,0.15892501955184926
34.300000000000004,0.4430105982516771,0.1592695207991897
34.4,0.43668655338029494,0.1573620270166261
34.5,0.44871428608843367,0.16098274281399885
34.6,0.45157734989520654,0.16184018294249536
34.7,0.4387852478346076,0.15799597625734998
34.800000000000004,0.45337878442798796,0.1623788163271024
34.9,0.4449463049582304,0.15985170875787946
35.0,0.4567391946322638,0.1633818053933963
35.1,0.4524053328332022,0.16208783485375802
35.2,0.4555931946591726,0.16304001646017352
35.300000000000004,0.4574629846525275,0.16359753374646324
35.4,0.4574677416941111,0.16359895124629692
35.5,0.4471782742388653,0.16052203405559928
35.6,0.4470412800635722,0.1604809205095736
35.7,0.4610754094839826,0.16467263145627667
35.800000000000004,0.4593872500783055,0.16417054772394998
35.9,0.4494611228969381,0.16120657130346125
36.0,0.4716289826174019,0.16779833234396455
36.1,0.47599031587853113,0.1690835080464312
36.2,0.4702672702152909,0.16739628946169716
36.300000000000004,0.49185492927455154,0.17372659359326337
36.4,0.4848630148664776,0.17168638992817992
36.5,0.4825918430902204,0.17102160639502315
36.6,0.47880765798133973,0.16991169089378425
36.7,0.4491941276227964,0.1611265655321222
36.800000000000004,0.4826986899786237,0.1710529038436506
36.9,0.48929074713307796,0.17297949127077245
37.0,0.48096969380401405,0.17054617131772887
37.1,0.4913802277218139,0.17358838104494217
37.2,0.4919842364578957,0.17376423462759047
37.300000000000004,0.46584343096631775,0.1660875851081975
37.4,0.482966626504449,0.1711313775367785
37.5,0.5096198736682042,0.17886760454401307
37.6,0.5027255098419563,0.17687965893167637
37.7,0.49707280614652116,0.1752429216114625
37.800000000000004,0.49910956374579557,0.17583337480381855
37.9,0.509556511481105,0.17884937583213126
38.0,0.5114469554372328,0.17939291012108455
38.1,0.4969943236879927,0.1752201535857671
38.2,0.47501224918676166,0.16879562691223568
38.300000000000004,0.5133088768798058,0.1799275795986936
38.400000000000006,0.5076261812786999,0.17829367075563807
38.5,0.5038988169280882,0.17721861768645977
38.6,0.5153871655880158,0.18052360471761522
38.7,0.48668222746788514,0.17221814968849009
38.800000000000004,0.5340777053213827,0.18584735839887273
38.900000000000006,0.5164504859525049,0.18082823460800024
39.0,0.5076079336484549,0.17828841421845312
39.1,0.5419823290465683,0.18807939677489982
39.2,0.5232642897078612,0.18277526092233193
39.300000000000004,0.4976435011454092,0.17540844626651153
39.400000000000006,0.5173279353169173,0.18107945363248013
39.5,0.5202461169996195,0.1819139028146597
39.6,0.5285092407355223,0.18426806863509748
39.7,0.4807090849895547,0.1704697410369317
39.800000000000004,0.5240021075944428,0.18298556760463397
39.900000000000006,0.5408645285155749,0.1877644575994022
40.0,0.524778111598044,0.18320664898128106
40.1,0.5487338884484664,0.18997680142168452
40.2,0.4805971676490209,0.17043691425084495
40.300000000000004,0.532047296799781,0.18527217288280595
40.400000000000006,0.5453720216708052,0.18903304525599163
40.5,0.5555274208371599,0.19187767125526778
40.6,0.5184815782354082,0.18140952755541104
40.7,0.5229307177384032,0.18268014654792175
