Frequency (Hz),Power,Log Power
0.0,0.000912325652313758,0.00039603736643156084
0.1,0.0009123312121364355,0.00039603977883093686
0.2,0.0009123479199190001,0.0003960470283146866
0.30000000000000004,0.0009123758726397665,0.0003960591569613712
0.4,0.0009124149861433903,0.0003960761282556947
0.5,0.0009124652117640627,0.0003960979210809027
0.6000000000000001,0.000912526623602048,0.00039612456758846606
0.7000000000000001,0.0009125992766847949,0.0003961560916536651
0.8,0.0009126830807718426,0.00039619245412032713
0.9,0.0009127781258912754,0.0003962336940503344
1.0,0.00091288436251229,0.00039627978995085677
1.1,0.000913001864403187,0.00039633077382830105
1.2000000000000002,0.0009131306235593968,0.00039638664220781306
1.3,0.0009132705992967535,0.00039644737743464324
1.4000000000000001,0.0009134218399854238,0.00039651300049458487
1.5,0.0009135844748289184,0.0003965835674465888
1.6,0.0009137583915427729,0.00039665902956816985
1.7000000000000002,0.0009139436200031713,0.0003967393998199549
1.8,0.0009141402326762852,0.0003968247096421704
1.9000000000000001,0.0009143482721963109,0.00039691497753084983
2.0,0.0009145677315882829,0.0003970102004564277
2.1,0.0009147985871135028,0.00039711036811544237
2.2,0.0009150409076009038,0.00039721551036927123
2.3000000000000003,0.0009152948097896371,0.0003973256778670699
2.4000000000000004,0.0009155601907191338,0.00039744082593063014
2.5,0.0009158371404127332,0.00039756099361694527
2.6,0.0009161257278364752,0.00039768621084596337
2.7,0.0009164259556678154,0.0003978164787750381
2.8000000000000003,0.0009167378945322512,0.00039795182804389545
2.9000000000000004,0.0009170615755476266,0.00039809227214958424
3.0,0.0009173969245740929,0.0003982377789182613
3.1,0.0009177441000045053,0.0003983884170708114
3.2,0.0009181032645849089,0.00039854425721676977
3.3000000000000003,0.0009184740622182768,0.00039870514484161376
3.4000000000000004,0.0009188569626403193,0.0003988712837559315
3.5,0.0009192519271337141,0.00039904265715445017
3.6,0.0009196586435524367,0.000399219129592304
3.7,0.000920077985563352,0.00039940108014311867
3.8000000000000003,0.0009205091769508088,0.0003995881720039087
3.9000000000000004,0.0009209520889343346,0.0003997803492908112
4.0,0.0009214081922669677,0.0003999782501490218
4.1000000000000005,0.0009218763365140267,0.000400181375403376
4.2,0.0009223566067149909,0.0004003897619448054
4.3,0.0009228489521725844,0.0004006033877685118
4.4,0.0009233539886998376,0.0004008225200641184
4.5,0.0009238723163241968,0.00040104741917142985
4.6000000000000005,0.000924402729176422,0.00040127756186272406
4.7,0.0009249464426984513,0.00040151347550171113
4.800000000000001,0.0009255016199304241,0.00040175436303509693
4.9,0.0009260703262115277,0.00040200112059015334
5.0,0.0009266510118007614,0.00040225307573591275
5.1000000000000005,0.00092724596014856,0.00040251121923470676
5.2,0.0009278530603345212,0.0004027746351640897
5.300000000000001,0.0009284748078478264,0.0004030444062864059
5.4,0.0009291098306074497,0.0004033199372557827
5.5,0.0009297563823595954,0.00040360047037723017
5.6000000000000005,0.0009304159000486445,0.0004038866291180569
5.7,0.0009310895715001018,0.0004041789288531898
5.800000000000001,0.0009317822050662844,0.0004044794558673595
5.9,0.0009324799484210043,0.0004047821997590787
6.0,0.0009331925434654888,0.0004050913874332793
6.1000000000000005,0.0009339262205475578,0.00040540972215720894
6.2,0.0009346731776413962,0.0004057338186979354
6.300000000000001,0.0009354270254696303,0.0004060609048080001
6.4,0.0009362016111649845,0.0004063969885892425
6.5,0.0009369946197957314,0.0004067410655998043
6.6000000000000005,0.0009377741570856322,0.0004070792972902055
6.7,0.0009385849407927689,0.0004074310861390958
6.800000000000001,0.0009394112670531565,0.00040778961841307296
6.9,0.0009402570243498511,0.0004081565812558239
7.0,0.0009411129652272067,0.00040852796230318283
7.1000000000000005,0.0009419969145299475,0.0004089114954900365
7.2,0.0009428782828606452,0.00040929390849221963
7.300000000000001,0.0009438014467303234,0.00040969445561459835
7.4,0.0009446829937311441,0.00041007694544959946
7.5,0.0009456373087887021,0.00041049100785774676
7.6000000000000005,0.0009465619625216308,0.00041089220030369225
7.7,0.0009475552551438287,0.00041132317365138966
7.800000000000001,0.0009485004765339094,0.000411733289284216
7.9,0.0009495455813055626,0.0004121867421822956
8.0,0.000950524743596162,0.0004126115833479373
8.1,0.0009515653788684136,0.0004130630960953487
8.200000000000001,0.0009525626947996162,0.0004134958129269342
8.3,0.0009535401992671869,0.0004139199335144091
8.4,0.0009547535284236544,0.00041444637337086267
8.5,0.0009557658859897388,0.00041488561508567373
8.6,0.0009568425186045449,0.000415352743972018
8.700000000000001,0.0009582347910009477,0.000415956821763185
8.8,0.0009593258192747138,0.00041643019546068623
8.9,0.0009604788505251167,0.0004169304703551917
9.0,0.0009616234404990399,0.00041742708219552523
9.1,0.0009627605787362458,0.00041792046033266647
9.200000000000001,0.0009639582234854214,0.0004184400902481392
9.3,0.0009651767376655662,0.00041896877428120895
9.4,0.0009663380086797028,0.00041947262128073215
9.5,0.0009674852443306937,0.0004199703781065085
9.600000000000001,0.0009692228159678791,0.00042072426585023834
9.700000000000001,0.0009705072955507368,0.00042128156773759155
9.8,0.0009714184942405646,0.0004216769124354719
9.9,0.000973058440947556,0.00042238844046596226
10.0,0.0009741692261911698,0.0004228703791456559
10.100000000000001,0.0009757333040545725,0.0004235489879205347
10.200000000000001,0.0009768915332175508,0.0004240515098364279
10.3,0.000978558444365906,0.0004247747330366258
10.4,0.000979778097762773,0.00042530390362960233
10.5,0.0009813209289675322,0.0004259732903415374
10.600000000000001,0.000983042247861333,0.00042672011612020975
10.700000000000001,0.0009845376251927688,0.000427368911964732
10.8,0.0009853093330570958,0.00042770373066113027
10.9,0.0009873670877472295,0.00042859652157430653
11.0,0.0009894853963838303,0.0004295155829018693
11.100000000000001,0.0009900257967558625,0.00042975004374252106
11.200000000000001,0.0009921918091184106,0.0004306897995590622
11.3,0.0009935149743304605,0.00043126387293860593
11.4,0.0009954337515948423,0.00043209635943006723
11.5,0.000998152502343114,0.0004332759220976728
11.600000000000001,0.0009989997460090375,0.00043364350828390416
11.700000000000001,0.0009999827134173612,0.0004340699793510572
11.8,0.0010018067559071136,0.00043486135885162
11.9,0.0010040984652530248,0.00043585563835942014
12.0,0.0010058053177954974,0.00043659617080053656
12.100000000000001,0.0010059986421303783,0.00043668004612208613
12.200000000000001,0.0010088567856955924,0.0004379200728636153
12.3,0.0010096754822592443,0.00043827526977534937
12.4,0.0010118262666871571,0.0004392084004215292
12.5,0.0010127120151950829,0.00043959268710929713
12.600000000000001,0.0010167337689513212,0.00044133754202897995
12.700000000000001,0.001018780245850015,0.0004422254120175827
12.8,0.001016647570710386,0.0004413001446301549
12.9,0.0010213768044148675,0.00044335193393341187
13.0,0.00102705476153491,0.00044581531634398704
13.100000000000001,0.0010260642116858671,0.0004453855671735893
13.200000000000001,0.0010297840575901394,0.0004469994168083235
13.3,0.001028560459922877,0.0004464685614350175
13.4,0.001038440035904683,0.000450754776962661
13.5,0.001024769414607301,0.0004448238199721653
13.600000000000001,0.001029404829528439,0.0004468348895501299
13.700000000000001,0.001041050149659277,0.00045188715757627553
13.8,0.0010516601388466376,0.0004564902009153075
13.9,0.0010456489660434023,0.0004538823165069168
14.0,0.0010460072363225148,0.0004540377487567979
14.100000000000001,0.001058382307834947,0.00045940652502954007
14.200000000000001,0.0010459153150891437,0.0004539978695844795
14.3,0.0010546094599434592,0.00045776972727931274
14.4,0.0010604236361838593,0.0004602921244605081
14.5,0.0010538931323314563,0.0004574589577792841
14.600000000000001,0.0010548380225791668,0.00045786888618551695
14.700000000000001,0.0010667605990178806,0.00046304130844095125
14.8,0.0010640956774129347,0.00046188517946556013
14.9,0.0010694187212054943,0.00046419448454381986
15.0,0.0010732489308950986,0.00046585614328534643
15.100000000000001,0.0010769072642209658,0.0004674432310184577
15.200000000000001,0.0010732599025609936,0.0004658609031107562
15.3,0.001073347480461508,0.00046589889693086353
15.4,0.0010764810701765857,0.00046725833637179513
15.5,0.0010861372383907824,0.0004714474272412503
15.600000000000001,0.0010956874317131575,0.00047559050376901274
15.700000000000001,0.001096670264240769,0.0004760168751331073
15.8,0.0010938801231863617,0.0004748064580092897
15.9,0.001089049079612479,0.0004727106499436435
16.0,0.0010905043685191249,0.0004733419858702073
16.1,0.0010984804213383206,0.00047680215446871475
16.2,0.0011084231769874517,0.000481115478836598
16.3,0.0011257743141824875,0.0004886425734673652
16.400000000000002,0.0011136209484929318,0.00048337033712230035
16.5,0.0011106609132254662,0.000482086238238286
16.6,0.001125680309569257,0.0004886017936893904
16.7,0.0011147220483994746,0.0004838480065301152
16.8,0.0011282773449987776,0.0004897284021818545
16.900000000000002,0.001126679956288787,0.0004890354463725394
17.0,0.001117380265105083,0.00048500116838935594
17.1,0.0011299317943353497,0.000490446110032133
17.2,0.0011199932432755192,0.0004861347023207448
17.3,0.001084948861258865,0.0004709318812577475
17.400000000000002,0.0011609151177555262,0.000503886601371591
17.5,0.0011617619317686916,0.0005042539414185451
17.6,0.0011644673972135463,0.0005054275450965479
17.7,0.0011634999284881604,0.000505007867265851
17.8,0.0011422473024249927,0.0004957885976929353
17.900000000000002,0.0011638484150252708,0.0005051590371334965
18.0,0.0011766082394070912,0.0005106940811872796
18.1,0.0011390763365049887,0.0004944130337448234
18.2,0.0011674767183037797,0.0005067329545693803
18.3,0.0011832438241477481,0.0005135724827234171
18.400000000000002,0.001152244893510531,0.0005001255208156708
18.5,0.0011815458105698328,0.0005128359157093293
18.6,0.0011125965595132918,0.0004829259452975495
18.7,0.0013116621219190583,0.000569274355430703
18.8,0.0011993890262951697,0.0005205759116255278
18.900000000000002,0.0011991999318317313,0.0005204938873148086
19.0,0.0012188294031749746,0.0005290085640330974
19.1,0.0011515122372123777,0.000499807698321108
19.200000000000003,0.0012278563253591288,0.0005329241164631608
19.3,0.001274902409753924,0.0005533304352684481
19.400000000000002,0.0012764260883092774,0.000553991317393521
19.5,0.0012237220476274022,0.0005311308206602222
19.6,0.0012667588335310792,0.0005497982139069252
19.700000000000003,0.0011373398368756489,0.0004936597389442678
19.8,0.0012278954392822626,0.0005329410825918768
19.900000000000002,0.001285178998855292,0.0005577877956052796
20.0,0.0012732727803354822,0.000552623596778589
20.1,0.0011747393258061275,0.0005098833754486983
20.200000000000003,0.001347575943250178,0.0005848508190979602
20.3,0.0012646309955784642,0.0005488752737862889
20.400000000000002,0.0012540081010960894,0.0005442676118494992
20.5,0.0012398863484698538,0.0005381422506112497
20.6,0.0013009326761994453,0.0005646206954246871
20.700000000000003,0.0012900933552354526,0.000559919328824061
20.8,0.0012957226345608106,0.0005623609369974301
20.900000000000002,0.001291280573652431,0.0005604342666078535
21.0,0.0013604516881858568,0.0005904351228495229
21.1,0.0013625769032425004,0.0005913568370944391
21.200000000000003,0.0013814810457371371,0.0005995555529893967
21.3,0.0013242799583736236,0.0005747469993902989
21.400000000000002,0.0011831154735051394,0.0005135168066224347
21.5,0.001270129106760127,0.0005512600507146781
21.6,0.001333371406951728,0.0005786901256128507
21.700000000000003,0.0013148918446411783,0.0005706751665340331
21.8,0.0013294568818128009,0.0005769923294156128
21.900000000000002,0.001299567718392303,0.0005640286715601246
22.0,0.001428337409027283,0.0006198764639767731
22.1,0.0014552651606861307,0.0006315542009567259
22.200000000000003,0.001290522643550845,0.0005601055261186999
22.3,0.0012567473851461306,0.0005454557762017129
22.400000000000002,0.001553221258281706,0.0006740320965591528
22.5,0.0013992894579320236,0.0006072789096960435
22.6,0.0016335187303307926,0.0007088493688026474
22.700000000000003,0.0015111860250882677,0.0006558043553465505
22.8,0.0016368159709342829,0.0007102790045086963
22.900000000000002,0.0012831428342819746,0.0005569046346875411
23.0,0.0012168189007538313,0.0005281364759756105
23.1,0.001542745401892588,0.000669489521766202
23.200000000000003,0.0016729286286770117,0.0007259366211388315
23.3,0.0014223293406480288,0.0006172709068203354
23.400000000000002,0.0014226400233764607,0.0006174056429548289
23.5,0.0016836796489721481,0.0007305979068727417
23.6,0.0015895790054646205,0.0006897972921064974
23.700000000000003,0.0014164199089387961,0.0006147081108054245
23.8,0.0016144479809750958,0.0007005804761355184
23.900000000000002,0.0017027820823950586,0.0007388799648633349
24.0,0.0018962974452706861,0.0008227716529564619
24.1,0.0015684776266290568,0.000680647527454875
24.200000000000003,0.0014589011229211213,0.0006331309817910557
24.3,0.0016039013386258988,0.0006960074863000577
24.400000000000002,0.001754043371155328,0.0007611040473250324
24.5,0.0014735933187293706,0.0006395023793137968
24.6,0.0015936207480146433,0.0006915498092871957
24.700000000000003,0.0017681412649771628,0.0007672159212442327
24.8,0.002759187638759794,0.0011966498334754943
24.900000000000002,0.0014722686265411246,0.0006389279189467236
25.0,0.0016342385035882385,0.0007091614524498738
25.1,0.00146136073897621,0.00063419762203695
25.200000000000003,0.001636524944875453,0.0007101528200196916
25.3,0.0017282929731662988,0.0007499402296549788
25.400000000000002,0.0018195847120022663,0.0007895175204088137
25.5,0.0018102458332440838,0.000785469044537671
25.6,0.0023748924761139312,0.001030179897865888
25.700000000000003,0.0016737273629707247,0.0007262829275509284
25.8,0.0018611605337624673,0.0008075405013817015
25.900000000000002,0.003377571161078951,0.0014643888684847761
26.0,0.002841059509050451,0.0012321070503965978
26.1,0.0008101837588052866,0.00035171587776182384
26.200000000000003,0.0008921033932830388,0.00038726286740299246
26.3,0.0016621994088041076,0.0007212847374667455
26.400000000000002,0.0009656872085908031,0.00041919025516251796
26.5,0.0018510966010994332,0.0008031778885302171
26.6,0.0016221763538197072,0.0007039314429058236
26.700000000000003,0.001818646763487649,0.0007891109142084332
26.8,0.0020754600975823,0.0009004267907362204
26.900000000000002,0.001887915178460667,0.0008191381556981171
27.0,0.0020833935804389658,0.0009038651088322295
27.1,0.0010084117932411911,0.00043772700982616295
27.200000000000003,0.0013204834024829297,0.0005731003536109076
27.3,0.001359153319599122,0.0005898720142533459
27.400000000000002,0.0010690000441554944,0.00046401284961710874
27.5,0.0024577309625186425,0.0010660694750152595
27.6,0.001491590504380916,0.000647306886832539
27.700000000000003,0.0005966441673109896,0.00025904199925627533
27.8,0.0022781170792764154,0.0009882484307612688
27.900000000000002,0.002165321129048147,0.0009393703652762462
28.0,0.0009657080821694521,0.0004191993116966666
28.1,0.001386635561620893,0.0006017910367547932
28.200000000000003,0.002680174070936917,0.00116242775010177
28.3,0.002334194424276723,0.0010125464771815011
28.400000000000002,0.0011085223993920514,0.0004811585228662244
28.5,0.002235267481248543,0.0009696809877883109
28.6,0.002883923257787237,0.0012506694053683724
28.700000000000003,0.0034144252630084167,0.0014803402307922036
28.8,0.003481873029860611,0.0015095317669932492
28.900000000000002,0.01745022711931866,0.0075131730656695555
29.0,0.0032500200378201387,0.0014091770800000306
29.1,0.0022440491388500262,0.0009734862906484757
29.200000000000003,0.005271515316393212,0.002283376858950667
29.3,0.0017952314705972252,0.0007789601235740886
29.400000000000002,0.003462776494163593,0.0015012669450620796
29.5,0.0013788314302147502,0.0005984064255642708
29.6,0.0037875309346612107,0.0016417965662959971
29.700000000000003,0.003478949348780473,0.0015082664323182663
29.8,0.0010676090624604697,0.0004634093986119289
29.900000000000002,0.0013313136888772534,0.0005777976590789714
30.0,0.002046632698773376,0.0008879329608680594
30.1,0.004319494715914475,0.0018718928084025196
30.200000000000003,0.003974456276058931,0.0017226633672899313
30.3,0.002332594833959535,0.0010118534011533638
30.400000000000002,0.0020867341440394343,0.0009053128784781649
30.5,0.0022254677435375706,0.0009654344870340954
30.6,0.0036624962436781227,0.001587696214431297
30.700000000000003,0.0023572424287762123,0.0010225326735500675
30.8,0.004722176174687639,0.0020459880901338716
30.900000000000002,0.003835458905284334,0.0016625323850027402
31.0,0.0026570084098906516,0.0011523938078297183
31.1,0.005209964999212825,0.002256785255515474
31.200000000000003,0.0018785633895696543,0.0008150843596547369
31.3,0.0030161783937524556,0.001307938135539852
31.400000000000002,0.002432487243515308,0.0010551330080038471
31.5,0.004041186584611257,0.001751528286638268
31.6,0.001636105143921154,0.0007099708006227569
31.700000000000003,0.002180127370069024,0.0009457866931382841
31.8,0.001262151491106367,0.0005477997974236789
31.900000000000002,0.004723369653324724,0.0020465039749135387
32.0,0.0024947500406714233,0.0010821069437543052
32.1,0.002725617954648782,0.0011821105774020315
32.2,0.003895859187326512,0.0016886628826125764
32.300000000000004,0.003028942274999921,0.0013134647143155879
32.4,0.003574517690046293,0.0015496253736413197
32.5,0.0007783423397994817,0.00033789829998197567
32.6,0.002398572369085787,0.0010404394578915266
32.7,0.006124174247348684,0.002651583962866203
32.800000000000004,0.0065247573679369595,0.0028244616449889922
32.9,0.003749761077194184,0.0016254549115258718
33.0,0.0030505114325490947,0.0013228036924762367
33.1,0.006108712137815017,0.002644909676907852
33.2,0.005956708484434148,0.0025792911862351055
33.300000000000004,0.004924009439548323,0.0021332224243323364
33.4,0.002030025864814065,0.0008807353755663566
33.5,0.01424385886774524,0.00614238678018408
33.6,0.005308613479206267,0.0022994036038384096
33.7,0.004254375165825773,0.001843732468669415
33.800000000000004,0.009691164937640752,0.004188556085784077
33.9,0.009717287733847921,0.004199792035827007
34.0,0.0031851081223355214,0.0013810766083536996
34.1,0.009698285842255664,0.0041916189616243065
34.2,0.006600515853432624,0.0028571486244445294
34.300000000000004,0.01059712489065526,0.0045780583531324975
34.4,0.009114997038957653,0.003940660522005144
34.5,0.0033727373149686217,0.0014622966174626145
34.6,0.021533982560853725,0.009252818538880882
34.7,0.008502566030120609,0.0036770075674297568
34.800000000000004,0.003915886782164783,0.0016973269159231994
34.9,0.004137444409105309,0.0017931622741776307
35.0,0.002773811881042274,0.001202983539006079
35.1,0.0028239937735123036,0.0012247164297524901
35.2,0.003962344961923157,0.0017174242811846315
35.300000000000004,0.0026230530798961433,0.0011376860243809367
35.4,0.011202034398914755,0.0048379346797396815
35.5,0.017048330569535634,0.007341591271740629
35.6,0.06590074005893551,0.027716763741404676
35.7,0.02478122574488371,0.010631160423118912
35.800000000000004,0.010313483798340932,0.004456149188509008
35.9,0.025385969781437638,0.010887370751944445
36.0,0.023835094656460564,0.010230012061679422
36.1,0.05441753803825317,0.023012620893611318
36.2,0.015555934666001178,0.0067038484181274165
36.300000000000004,0.0175120824370463,0.007539574953358186
36.4,0.010773373170368503,0.00465379276757238
36.5,0.013950265624517616,0.006016653326163436
36.6,0.014351242792691983,0.006188365641175016
36.7,0.012691812328636391,0.005477298697809941
36.800000000000004,0.005324360805097712,0.002306206413527713
36.9,0.0025902135155652416,0.0011234610620631442
37.0,0.010044591774826125,0.004340547578931318
37.1,0.002951867166640618,0.0012800912203006756
37.2,0.009246279962470575,0.003997157294887063
37.300000000000004,0.004544462706312432,0.001969164061522666
