Frequency (Hz),Power,Log Power
0.0,0.00933985366293899,0.004037421657271044
0.5,0.009341362690217613,0.004038070954658733
1.0,0.009345881018327618,0.004040015074503616
1.5,0.009353406367194554,0.004043253018369499
2.0,0.009363944382610458,0.00404778718650725
2.5,0.009377481383011624,0.004053611651692105
3.0,0.009394013694100731,0.004060724781134175
3.5,0.00941354169263462,0.00406912667361131
4.0,0.009436051195587396,0.004078811152294197
4.5,0.009461534509827394,0.004089774821609611
5.0,0.009489985729348043,0.004102015043841939
5.5,0.009521399718820779,0.004115529501840584
6.0,0.009555750446078865,0.004130306878027255
6.5,0.009593039340911965,0.0041463476585245585
7.0,0.009633260489480844,0.004163649159483645
7.5,0.009676415670449504,0.00418221199527282
8.0,0.00972241820048588,0.0042019987205266455
8.5,0.009771273430580827,0.004223011469350218
9.0,0.009822654828133728,0.004245109631879113
9.5,0.00987836198842165,0.004269066952413472
10.0,0.009935965505331164,0.004293838426898312
10.5,0.009994856262175528,0.004319161997848528
11.0,0.010057926091172353,0.0043462809711309475
11.5,0.01012537935693736,0.004375282875106651
12.0,0.010194898639806542,0.004405171048062909
12.5,0.01026622847330742,0.004435835486672174
13.0,0.010341403679256993,0.00446815069385579
13.5,0.010418666465366034,0.004501360773741771
14.0,0.010502931344779495,0.004537577688052929
14.5,0.010583910500316701,0.004572379557710042
15.0,0.010665437847711238,0.004607414203134507
15.5,0.010759348899659193,0.004647766979995051
16.0,0.010849171873166663,0.004686359636651679
16.5,0.010954045419953914,0.004731414469207683
17.0,0.011014645522393092,0.004757446811071246
17.5,0.011147958960862186,0.004814709556061391
18.0,0.011144067129529442,0.004813037986524933
18.5,0.011297817415214455,0.00487906994650652
19.0,0.0115626199608753,0.00499277258550866
19.5,0.01176237845479859,0.005078526492541873
20.0,0.01111227736749022,0.004799383814269913
20.5,0.011933485497858916,0.005151967216631535
21.0,0.011653185102119393,0.005031653204197856
21.5,0.01251031758051214,0.005399457413079189
22.0,0.01196645871719238,0.005166118199983523
22.5,0.012353729164825189,0.0053322869923216444
23.0,0.012519201544824629,0.005403267981411053
23.5,0.012697820989186603,0.005479875513724938
24.0,0.012448490972958392,0.005372937412385495
24.5,0.011948843757118407,0.005158558516087773
25.0,0.01446755064281951,0.006238159992184803
25.5,0.0135848100579214,0.005860093432748086
26.0,0.014408797833302346,0.006213007132577597
26.5,0.013688746720105855,0.0059046252807000085
27.0,0.013068066910444804,0.005638626101145258
27.5,0.013837419147034057,0.005968316310516317
28.0,0.011167039908692339,0.004822904867233908
28.5,0.013559929564006807,0.005849432663436926
29.0,0.011398271818998324,0.0049222072161282035
29.5,0.014647937013724601,0.006315376696879615
30.0,0.014502305325452521,0.006253038248601332
30.5,0.012340435626864437,0.005326584096267659
31.0,0.015777156010557767,0.006798441678130802
31.5,0.012876946834092932,0.005556686666240926
32.0,0.014197333191529908,0.006122464246043353
32.5,0.024429023049501314,0.01048187394681697
33.0,0.015619545094910071,0.006731050064219478
33.5,0.017324641869738075,0.007459564205247952
34.0,0.01596961478204124,0.006880719434296772
34.5,0.01418632950793176,0.0061177522784258065
35.0,0.01715043021297837,0.007385187121510602
35.5,0.01400061954153561,0.006038220345826088
36.0,0.021836894801945596,0.009381579418492273
36.5,0.0014025461100629338,0.0006086912771352909
37.0,0.013376517666613083,0.005770836439781599
37.5,0.018180292515608692,0.007824686754989017
38.0,0.011917932445072882,0.005145292215747571
38.5,0.022241730973266354,0.009553606184352676
39.0,0.005697538003289889,0.0024673869555231313
39.5,0.026235554344319473,0.011247056887346667
40.0,0.01642271500390399,0.007074362095194825
40.5,0.01023802665348975,0.004423711884659301
41.0,0.043158416355580105,0.018350266360180095
41.5,0.03545446884912695,0.01513100679072348
42.0,0.03319659204038256,0.014182964999830322
42.5,0.024824457065411806,0.01064948114120726
43.0,0.033101700447879856,0.014143076378539147
43.5,0.04286839781145154,0.01822950717020154
44.0,0.058116177121639724,0.024533354195256044
44.5,0.04902341016435293,0.020785180082742803
45.0,0.05252695453230714,0.022233226649984113
45.5,0.04993518019311164,0.021162487876217308
46.0,0.01758785888489057,0.007571916650691081
46.5,0.07096728172263934,0.029776203246083037
47.0,0.052513580913654566,0.022227708382106477
47.5,0.050020348540362025,0.021197715425332397
48.0,0.05729303152755059,0.024195369841309766
48.5,0.024079235242404625,0.01033356025042782
49.0,0.0366038514076246,0.015612818088281459
49.5,0.06782094268950381,0.02849843422679375
50.0,0.08915553593450691,0.037089903240410844
50.5,0.15088476483738733,0.06103184100542221
51.0,0.10425454602909003,0.0430691958509942
51.5,0.09640823968226206,0.039972290671813855
52.0,0.06351384858785641,0.026743149458427946
52.5,0.08985227352188606,0.03736763450739617
53.0,0.019619248897719977,0.008438025709698297
53.5,0.01043146926770623,0.004506863592888072
54.0,0.021053690095859064,0.00904857920670091
54.5,0.08964684312388495,0.037285764973382735
55.0,0.12641249057312537,0.05169745763336012
55.5,0.09386898052799705,0.038965306968827364
56.0,0.051049653789019066,0.02162323349465097
56.5,0.09409042732415937,0.03905321821762997
57.0,0.018793901839087048,0.008086336757262167
57.5,0.11836993634106924,0.04858548399471428
58.0,0.09516795358503294,0.03948072714126535
58.5,0.13058844493204083,0.053304542482761584
59.0,0.06651883770036782,0.027968530706282472
59.5,0.24710447536427424,0.0959028377396462
60.0,0.11924843174805513,0.04892649453759745
60.5,0.0718319810333009,0.030126711262430834
61.0,0.13107512311639316,0.05349145061195925
61.5,0.08613356701538527,0.03588323579691264
62.0,0.06165712361026815,0.025984278169576727
62.5,0.11101043843752766,0.04571813934997783
63.0,0.06469388631226909,0.027224760267622664
63.5,0.10319924941430028,0.04265395768615952
64.0,0.0965536594599884,0.04002988857822842
64.5,0.07149272804356616,0.029989227938492673
65.0,0.234439655025266,0.09146986451493594
65.5,0.1545943864964014,0.06242944167849355
66.0,0.13498127233822832,0.054988695549170026
66.5,0.08144959174655982,0.03400628102289919
67.0,0.03637973338224797,0.015518911679364865
67.5,0.07981798717526273,0.03335055749890113
68.0,0.038561268756845346,0.0164321223425872
68.5,0.16351719523302843,0.06577280596364865
69.0,0.06510192700618506,0.027391170420952585
69.5,0.18546694945667488,0.07388945045366155
70.0,0.06016491064325216,0.025373425841927675
70.5,0.045369118917369694,0.019269666527110724
71.0,0.041630891527407114,0.01771385123654934
71.5,0.06256018632468985,0.026353539050258952
72.0,0.18143338924150693,0.07240924056817444
72.5,0.07929804415245342,0.03314139005555972
73.0,0.06331722270614255,0.02666284826589456
73.5,0.11127542605432426,0.04582171077805709
74.0,0.12777494619614596,0.05222244239843945
74.5,0.04305397536334638,0.01830678263164934
75.0,0.1824797902993718,0.0727937269688626
75.5,0.10957127055994983,0.0451552032934092
76.0,0.11959135601601423,0.0490595367671165
76.5,0.12222868103675794,0.050081363865591415
77.0,0.21713267297690286,0.08533792087696618
77.5,0.4615339243552971,0.16480890042511256
78.0,0.5062357800433277,0.17789295988384526
78.5,0.39692434458464326,0.1451728859859528
79.0,0.4258292514257744,0.15406752018373893
79.5,0.23799166603842248,0.09271772109305873
80.0,0.3944627230668321,0.14440690914867282
80.5,0.33540421245623536,0.12561274185673654
81.0,0.21479106680687823,0.08450158959233943
81.5,0.28147117232724483,0.1077088408440843
82.0,0.15424082953461277,0.06229643275895057
82.5,0.21067115320435606,0.08302619455252742
83.0,0.35092866485168,0.1306324169130587
83.5,0.17089690052443102,0.0685186563835928
84.0,0.2549149509963739,0.09861429349468631
84.5,0.1554782811776428,0.06276178672265746
85.0,0.08383677405441227,0.03496388232682903
85.5,0.11113987097625197,0.045768731640852205
86.0,0.1853336498570571,0.0738406135496792
86.5,0.29233977057263605,0.11137670954564288
87.0,0.22445671239786325,0.08794343633778913
87.5,0.22991452646752572,0.08987493097327369
88.0,0.5706926218441387,0.19609120369173705
88.5,0.13295525561848226,0.05421275838792689
89.0,0.16040658622064452,0.06461018510060677
89.5,0.12258472713741632,0.050219129309750574
90.0,0.18261305018144047,0.07284266714618857
90.5,0.036400754263333696,0.015527720381217311
91.0,0.29646562708277463,0.11276100690084488
91.5,0.1814663331713376,0.0724213505758932
92.0,0.20914918017133818,0.08247988574778793
92.5,0.27202967287568974,0.10449724229971194
93.0,0.19645915957472415,0.0778978788173629
93.5,0.2617868258129162,0.10098598866940786
94.0,0.10630108420457793,0.04387333801181218
94.5,0.13751766262416554,0.0559581488198378
95.0,0.15611345702776314,0.06300045635374228
95.5,0.15303758001191994,0.06184346213063889
96.0,0.057878804251575176,0.02443591565786589
96.5,0.12129186675398693,0.049718672026087145
97.0,0.06070602390920039,0.02559503528242355
97.5,0.055601220303063824,0.023499883604264946
98.0,0.06470444722697204,0.027229068101349355
98.5,0.10005571521967443,0.041414681703403775
99.0,0.06767400605792762,0.02843866937610088
99.5,0.05548397492185531,0.023451643938471285
100.0,0.037888799475359496,0.01615082522605438
100.5,0.0169559510007826,0.007302142055884825
101.0,0.06710770223825702,0.028208254595257436
101.5,0.03582175134585433,0.015285026579822527
102.0,0.04415131261081499,0.018763438771816653
102.5,0.03776084462961124,0.016097280463652445
103.0,0.09785320061446456,0.040544272331434476
103.5,0.03822782009944693,0.01629266194776176
104.0,0.14619779734472332,0.059259569536185976
104.5,0.11630827094440946,0.04778414252513461
105.0,0.176380824563878,0.07054793673441251
105.5,0.10919148885746266,0.04500652845322738
106.0,0.037701613773874085,0.016072492124352144
106.5,0.12724635718783822,0.05201884051373637
107.0,0.12298369113752274,0.050373449137316124
107.5,0.1499753366191487,0.06068852619268252
108.0,0.22269360311655687,0.08731764007223218
108.5,0.1942710262249946,0.07710289617109599
109.0,0.1987120429851486,0.07871486853485218
109.5,0.4550685536805576,0.16288345502902107
110.0,0.033853442337850315,0.014458978124316237
110.5,0.42909201094214017,0.1550601913928088
111.0,0.21229329358681026,0.08360770264948544
111.5,0.13651665815294667,0.05557580564909706
112.0,0.1850235537264584,0.07372698254170858
112.5,0.3042225025328275,0.1153516890791758
113.0,0.07587630697207254,0.03176234355397919
113.5,0.1628375439734227,0.06551904518066161
114.0,0.32176970044622544,0.12115579211011751
114.5,0.19613588597834447,0.0777805201024663
115.0,0.07977178900089621,0.033331976551328815
115.5,0.27200102334221116,0.10448746070838301
116.0,0.22465569169942118,0.08801400526122855
116.5,0.02617656823174203,0.011222093730165323
117.0,0.1143291364684226,0.04701348620550765
117.5,0.15844253929830582,0.06387449692222782
118.0,0.19410991261926558,0.07704430354971316
118.5,0.15424230138785622,0.06229698655787876
119.0,0.06042541258831981,0.025480126845509203
119.5,0.14486790992978651,0.05875538248568447
120.0,0.12216065320573326,0.050055036783041074
120.5,0.22044212444372177,0.08651718921761256
121.0,0.2696944852469494,0.10369923329194791
121.5,0.3446851025111094,0.1286205934436172
122.0,0.1039374375608013,0.04294446171563575
122.5,0.1172854606930875,0.04816414730101534
123.0,0.16888334359658325,0.06777117004949303
123.5,0.306435472714143,0.11608796397819826
124.0,0.16924202936293942,0.06790441803703826
124.5,0.12376550249686809,0.05067569593363792
125.0,0.1332531707077484,0.05432694283679425
125.5,0.20654244989098625,0.08154260633522778
126.0,0.14172374291870246,0.05756103259640835
126.5,0.200346600186606,0.07930666672604189
127.0,0.039457466706780846,0.01680672324664904
127.5,0.1732897644261189,0.06940528197951883
128.0,0.1120193246366013,0.04611233446736714
128.5,0.18157867932280738,0.07246264586517055
129.0,0.21830266978808943,0.08575519592353395
129.5,0.05910298508619109,0.024938192099981372
130.0,0.09384752174039024,0.03895678718755167
130.5,0.029475750469091386,0.012616121171149228
131.0,0.06993361368270712,0.029356831792029515
131.5,0.13765583220640645,0.05601089757710331
132.0,0.2868160719525858,0.10951647647358502
132.5,0.1353188187062115,0.05511783664964401
133.0,0.0803735449255509,0.03357394108971965
133.5,0.25263013911014115,0.09782285690365279
134.0,0.06842504624133751,0.028744060289908696
134.5,0.18317717855992255,0.07304978428068923
135.0,0.14446482981255668,0.05860245104898428
135.5,0.1860622249527877,0.0741074742261651
136.0,0.0409109859725834,0.017413592186987684
136.5,0.10315833858815392,0.04263785209552978
137.0,0.1782479731443236,0.07123670134659552
137.5,0.10822607565652505,0.044628364539379954
138.0,0.3099312716851656,0.1172485100749267
138.5,0.17412485633279812,0.06971428220388946
139.0,0.034022849593196965,0.014530135801052604
139.5,0.10940775242748783,0.0450911963586773
140.0,0.26635168086424305,0.10255433115438391
140.5,0.2386077931379324,0.09293380819910818
141.0,0.13201485562596665,0.05385212621095301
141.5,0.04147186122798696,0.017647540555008168
142.0,0.14548342594793665,0.05898880974416111
142.5,0.24325643108252246,0.09456071441657177
143.0,0.19319532510070653,0.07671154314213381
143.5,0.07442694770514084,0.031176892338318038
144.0,0.08116037112905704,0.033890118680970464
144.5,0.024676672483514364,0.010586849286445842
145.0,0.10464818937461942,0.04322398504281423
145.5,0.11583078622071157,0.047598339599288705
146.0,0.275017237828561,0.10551605633328191
146.5,0.15079615788935705,0.06099840326153093
147.0,0.028849304559023854,0.012351768357011609
147.5,0.07140832217563031,0.029955015436986806
148.0,0.10961303360676042,0.045171549354207655
148.5,0.06983129321683924,0.029315297122867703
149.0,0.16352529702866586,0.06577583002973295
149.5,0.1418735084007889,0.05761799738957006
150.0,0.047240367620663797,0.02004637446803207
150.5,0.1284797978446858,0.052493788701234376
151.0,0.24830685838456684,0.09632135659799773
151.5,0.09074838301816329,0.0377245778387252
152.0,0.1278168846198471,0.05223859215190672
152.5,0.16666591969432384,0.06694651156826709
153.0,0.1420586543648726,0.05768840917502951
153.5,0.0744980991244567,0.031205651525470952
154.0,0.158015868364501,0.0637145105968766
154.5,0.10820687867356578,0.04462084151121678
155.0,0.09582119244324719,0.039739695142460355
155.5,0.10966855053866371,0.045193277734558335
156.0,0.12548975982747837,0.05134154796323693
156.5,0.2777612549521788,0.1064497150564257
157.0,0.15291512412954383,0.06179733636756753
157.5,0.16994758193073278,0.0681664041494066
158.0,0.11571687096909242,0.047554000178558514
158.5,0.10211773516924855,0.042227991070327174
159.0,0.05371759694870777,0.02272423277373044
159.5,0.11729162709718814,0.048166544206710606
160.0,0.13188632648820717,0.05380281355031772
160.5,0.2643104443271755,0.10185372561108609
161.0,0.18870710880440952,0.07507485991760716
161.5,0.15260564863602674,0.06168074362070211
162.0,0.1557599967084999,0.06286765854236055
162.5,0.11997265481850536,0.049207419093030974
163.0,0.26037548265017224,0.10049994650664101
163.5,0.08121253793030449,0.03391107321090364
164.0,0.16033212889813295,0.0645823177632762
164.5,0.1730297518787197,0.06930902738653723
165.0,0.22216123397535867,0.08712850411167984
165.5,0.2107205986528297,0.08304393136476679
166.0,0.2496379782393852,0.09678421554823868
166.5,0.0674533289193443,0.028348895935107195
167.0,0.01648867272994369,0.007102543428272852
167.5,0.10853296015061674,0.044748610575204587
168.0,0.1911083737000041,0.07595127782086467
168.5,0.13132804437409362,0.05358855293979482
169.0,0.10017130549060553,0.041460313555390635
169.5,0.19284497372669623,0.07658400491939028
170.0,0.21585340492761443,0.08488121534056664
170.5,0.0923155062392014,0.03834809883379569
171.0,0.21615027479601387,0.08498724227416422
171.5,0.17851396565475122,0.07133473337782872
172.0,0.03777851282292317,0.01610467439606159
172.5,0.10276083303418988,0.04248133278811193
173.0,0.1092843281582078,0.04504287736966068
173.5,0.3219663717944925,0.12122040769890889
174.0,0.15724576903439855,0.06342560164895257
174.5,0.23521878682926625,0.09174388836264215
175.0,0.2434151780890861,0.09461616439943932
175.5,0.14581812006304437,0.05911568593695522
176.0,0.1298762849287248,0.053030893293884905
176.5,0.10302239642642239,0.04258433070461588
177.0,0.125107458462761,0.05119400368177376
177.5,0.11524956664817693,0.04737206316015323
178.0,0.07505687955103144,0.03143144269036848
178.5,0.04064809490063318,0.01730389350627693
179.0,0.3792463405914121,0.13964184036364372
179.5,0.09834274400526001,0.0407378852896195
180.0,0.12107154707916985,0.04963333026681178
180.5,0.14143103977743315,0.05744967846417973
181.0,0.10720590930783379,0.04422839500731361
181.5,0.1917356867251452,0.07617994456080246
182.0,0.09495356244655653,0.03939570091050589
182.5,0.17241015425874465,0.0690795712125283
183.0,0.2105515281091507,0.08298328026860959
183.5,0.2203543152532552,0.08648594118211378
184.0,0.09355650151742799,0.038841226937724356
184.5,0.15580169681585485,0.06288332771231758
185.0,0.16262096936547346,0.06543815175092711
185.5,0.038670287269845255,0.016477708149838465
186.0,0.14487365064615387,0.05875756016502039
186.5,0.19564483178003828,0.077602190935371
187.0,0.12435925934595717,0.05090510075451286
187.5,0.11309462229303378,0.04653208454406763
188.0,0.09788821334079537,0.04055812262705357
188.5,0.15397029604229873,0.06219462993674074
189.0,0.13385291242695058,0.05455671993212312
189.5,0.03989755392729191,0.01699055664920056
190.0,0.29214166634538197,0.11131013094950543
190.5,0.24296467986456077,0.09445878788713076
191.0,0.1648606630780069,0.06627397954624022
191.5,0.03398200061650167,0.014512978698959124
192.0,0.2509066320652257,0.09722489507142058
192.5,0.13892106051402084,0.05649362384097266
193.0,0.20548071204613277,0.08116026596279186
193.5,0.11412521686829187,0.04693400406830045
194.0,0.1016832010062288,0.04205672715211584
194.5,0.11658545175605273,0.04789196503041613
195.0,0.13192046920009431,0.053815913600551005
195.5,0.11668148047224558,0.047929313670626285
196.0,0.13012980622468917,0.05312832922627035
196.5,0.18635958658832474,0.07421634400428931
197.0,0.0707687530945793,0.029695689227070752
197.5,0.3505265917510919,0.13050313982822107
198.0,0.19547174546161916,0.07753931618151819
198.5,0.19827129181190142,0.07855515461293029
199.0,0.11243700286998529,0.04627542632209002
199.5,0.07333411243674408,0.030734932218580903
200.0,0.16819622967634962,0.06751580023153117
200.5,0.18491312177012278,0.07368650889547748
201.0,0.162472075517866,0.06538252922292895
201.5,0.2647449576860973,0.10200295662895904
202.0,0.2969083144365008,0.11290927450986261
202.5,0.08607515186875425,0.035859877658602025
203.0,0.07214090784687331,0.030251866960127275
203.5,0.27747724413943703,0.10635317273419129
204.0,0.14905703575670445,0.06034158630328568
204.5,0.1090005465327834,0.044931760176313854
205.0,0.07444034129909691,0.031182306133742024
205.5,0.10073609647707525,0.04168320854317376
206.0,0.27016867962372654,0.10386139951131368
206.5,0.13576899256321312,0.055290007909234495
207.0,0.026283650746754327,0.011267410414006805
207.5,0.20530799966038235,0.0810980389946201
208.0,0.03439567715676647,0.014686696915951914
208.5,0.13115030960310553,0.053520318713106564
209.0,0.19289975933652603,0.07660395096618335
209.5,0.16074644071766406,0.06473736063108436
210.0,0.17165429383903347,0.06879948845199367
210.5,0.24076506841459624,0.09368955817085009
211.0,0.10477560269104894,0.043274074935487954
211.5,0.28560610361955774,0.10910792564234563
212.0,0.07700076257479055,0.032216010802072904
212.5,0.25986354950593166,0.10032351106550368
213.0,0.08913696359682133,0.03708249756484174
213.5,0.02834254016093999,0.012137801937954029
214.0,0.13486040363115803,0.054942443325395385
214.5,0.2743881053403419,0.10530170927050657
215.0,0.33006294686032006,0.12387219497249193
215.5,0.2813486654338806,0.10766732090027885
216.0,0.1574886120069472,0.06351672688923728
216.5,0.11818030365412226,0.048511838048154086
217.0,0.11369617283232342,0.04676672722960986
