Frequency (Hz),Power,Log Power
0.0,0.0025427584545844456,0.0011029043494517664
0.1,0.0025427598846178463,0.0011029049689322023
0.2,0.002542764240338696,0.0011029068557998
0.30000000000000004,0.0025427715017331417,0.0011029100013849114
0.4,0.00254278133679465,0.001102914261864374
0.5,0.0025427937165528373,0.001102919624688485
0.6000000000000001,0.002542809111771911,0.0011029262937889894
0.7000000000000001,0.0025428278112879796,0.0011029343942875736
0.8,0.0025428493412233376,0.0011029437209036303
0.9,0.0025428729927793156,0.0011029539665904542
1.0,0.0025428991184456217,0.0011029652840441678
1.1,0.0025429284781040406,0.0011029780024400528
1.2000000000000002,0.0025429612217637795,0.0011029921867608686
1.3,0.0025429963311216874,0.0011030073958847733
1.4000000000000001,0.002543033449653132,0.0011030234753678508
1.5,0.002543073226955236,0.0011030407066106001
1.6,0.0025431162376802945,0.0011030593385484358
1.7000000000000002,0.002543161955871541,0.0011030791433402703
1.8,0.0025432100369282883,0.0011030999717074638
1.9000000000000001,0.0025432604228640752,0.0011031217985306313
2.0,0.0025433134461719633,0.0011031447678430447
2.1,0.0025433689793492756,0.0011031688244114858
2.2,0.002543426878538324,0.001103193905917524
2.3000000000000003,0.002543487393478385,0.001103220120546328
2.4000000000000004,0.002543550429149461,0.0011032474271356354
2.5,0.0025436156035519237,0.0011032756602057663
2.6,0.002543682485630276,0.001103304633026631
2.7,0.002543751891978941,0.0011033346993406668
2.8000000000000003,0.0025438241330897602,0.0011033659936503946
2.9000000000000004,0.00254389871768498,0.0011033983031376524
3.0,0.0025439745279287286,0.0011034311435642685
3.1,0.002544052005851561,0.00110346470641425
3.2,0.0025441321892567914,0.0011034994412560532
3.3000000000000003,0.0025442149253489515,0.0011035352818995323
3.4000000000000004,0.0025442990610525236,0.0011035717288409145
3.5,0.0025443845246843214,0.0011036087510275768
3.6,0.0025444719033889808,0.0011036466028056424
3.7,0.0025445613050243746,0.001103685330898307
3.8000000000000003,0.0025446527451301235,0.00110372494203686
3.9000000000000004,0.0025447452717769115,0.0011037650238528319
4.0,0.0025448394529630548,0.0011038058223984632
4.1000000000000005,0.0025449352558280657,0.0011038473234385997
4.2,0.0025450320616992685,0.0011038892589690897
4.3,0.002545130524938654,0.0011039319124540186
4.4,0.0025452303496407633,0.0011039751557093934
4.5,0.002545331118024308,0.001104018807755645
4.6000000000000005,0.002545433808985072,0.0011040632926421353
4.7,0.0025455364883777577,0.0011041077725129683
4.800000000000001,0.0025456401837251567,0.0011041526924824015
4.9,0.0025457461829546685,0.0011041986104698021
5.0,0.002545852359522767,0.0011042446052738457
5.1000000000000005,0.0025459577521966827,0.0011042902604967001
5.2,0.002546066556765314,0.001104337393718731
5.300000000000001,0.0025461758848736808,0.0011043847537285756
5.4,0.002546281137435328,0.0011044303482412173
5.5,0.0025463964685922312,0.0011044803087100433
5.6000000000000005,0.002546500655617002,0.001104525441631235
5.7,0.0025466083376348265,0.001104572088548522
5.800000000000001,0.002546720246907546,0.0011046205666706433
5.9,0.0025468345431609862,0.0011046700788063875
6.0,0.0025469433231861175,0.0011047172013551796
6.1000000000000005,0.0025470474386318684,0.0011047623032443801
6.2,0.002547170842987934,0.0011048157609127472
6.300000000000001,0.002547268404472901,0.0011048580236748412
6.4,0.0025473833885501633,0.001104907833742578
6.5,0.0025474953374813917,0.0011049563290069235
6.6000000000000005,0.00254759821648149,0.0011050008952544173
6.7,0.002547704412723866,0.0011050468984962036
6.800000000000001,0.002547806256282857,0.0011050910161908643
6.9,0.0025479197481650005,0.0011051401798267983
7.0,0.0025480142562093904,0.001105181119835134
7.1000000000000005,0.0025481415065475685,0.0011052362434954839
7.2,0.0025482366667370837,0.0011052774659979522
7.300000000000001,0.0025483266171733724,0.0011053164316805098
7.4,0.0025484404038628745,0.0011053657229987458
7.5,0.0025485618571274393,0.0011054183353985914
7.6000000000000005,0.002548674886086556,0.0011054672984636485
7.7,0.0025487703461557765,0.0011055086508491765
7.800000000000001,0.002548848725221915,0.0011055426039052187
7.9,0.0025489495611955024,0.0011055862850732263
8.0,0.0025490315909458723,0.0011056218195640624
8.1,0.0025491562810932454,0.0011056758341189126
8.200000000000001,0.0025492282743356733,0.001105707020885694
8.3,0.0025493039130517615,0.0011057397868336287
8.4,0.0025494475628751426,0.0011058020145174971
8.5,0.002549565057707885,0.001105852912111277
8.6,0.0025496045079127826,0.0011058700015466024
8.700000000000001,0.002549701902911181,0.001105912192085777
8.8,0.0025495951847502316,0.0011058659628456616
8.9,0.002549817631649686,0.0011059623246123496
9.0,0.0025498850972523563,0.0011059915500308299
9.1,0.0025500538149832892,0.0011060646368412238
9.200000000000001,0.0025501831743507354,0.0011061206739992923
9.3,0.0025500811806275702,0.0011060764913597655
9.4,0.0025502377525222805,0.0011061443167042463
9.5,0.0025501300165749587,0.0011060976465941087
9.600000000000001,0.0025499267356595854,0.0011060095873678816
9.700000000000001,0.002550459857336208,0.0011062405302212878
9.8,0.0025503490198862944,0.0011061925165826117
9.9,0.0025502848816376144,0.0011061647325531984
10.0,0.0025509165004468336,0.0011064383432451042
10.100000000000001,0.002551046183296515,0.0011064945204839816
10.200000000000001,0.0025510282715180232,0.001106486761291405
10.3,0.0025505852708810985,0.001106294858067389
10.4,0.0025503784883217718,0.0011062052820050559
10.5,0.0025518577120806577,0.0011068460660053482
10.600000000000001,0.002550051145988562,0.0011060634806599279
10.700000000000001,0.0025503717620597027,0.0011062023682576413
10.8,0.0025493196785862315,0.0011057466163077786
10.9,0.0025512392443603703,0.0011065781524815003
11.0,0.002550013588580086,0.0011060472111723745
11.100000000000001,0.0025517928642819513,0.00110681797464845
11.200000000000001,0.0025523211785155645,0.0011070468345413579
11.3,0.002550058257241541,0.00110606656118233
11.4,0.0025520556769255236,0.0011069318221990333
11.5,0.002549581842774069,0.0011058601832346542
11.600000000000001,0.0025514730369121694,0.0011066794289045136
11.700000000000001,0.0025490651004048794,0.001105636335535375
11.8,0.002538479506340353,0.0011010507351685995
11.9,0.002556986343439321,0.0011090677272437507
12.0,0.0025578301379328987,0.0011094332477510284
12.100000000000001,0.0025526690270734342,0.0011071975186301218
12.200000000000001,0.0025514485050367503,0.0011066688019606185
12.3,0.0025506279469237644,0.0011063133448846445
12.4,0.0025503886430325987,0.0011062096809210202
12.5,0.0025505772044219174,0.0011062913637611476
12.600000000000001,0.002550525469697769,0.001106268952816231
12.700000000000001,0.002550341984429182,0.0011061894688950693
12.8,0.00255050582024962,0.0011062604408790947
12.9,0.0025526017971507033,0.0011071683953866797
13.0,0.0025510393290122824,0.0011064915512807184
13.100000000000001,0.002552191208389264,0.0011069905329287725
13.200000000000001,0.0025502628495008947,0.0011061551884578265
13.3,0.002550971661796833,0.0011064622385593835
13.4,0.002550120594683906,0.001106093565127071
13.5,0.002552528808038983,0.0011071367773254198
13.600000000000001,0.0025508059839345768,0.001106390468655052
13.700000000000001,0.0025528147828664163,0.0011072606583872194
13.8,0.0025490816855933385,0.0011056435200772253
13.9,0.0025499765072481096,0.001106031147915728
14.0,0.0025525765364342178,0.0011071574527290442
14.100000000000001,0.0025490260069086137,0.0011056194006134803
14.200000000000001,0.0025540333658901917,0.0011077885343789404
14.3,0.002551581495407814,0.0011067264119521056
14.4,0.0025535911658720804,0.0011075969785487854
14.5,0.0025521368199320042,0.0011069669724520915
14.600000000000001,0.0025509898686738334,0.0011064701255858987
14.700000000000001,0.0025510459253370163,0.0011064944087386913
14.8,0.0025523839243385537,0.0011070740153310834
14.9,0.0025529752023824843,0.0011073301502923212
15.0,0.002552439112545756,0.0011070979222446182
15.100000000000001,0.0025458857333774654,0.001104259062548493
15.200000000000001,0.0025501513341226923,0.001106106881138068
15.3,0.0025450505812173213,0.001103897281475918
15.4,0.0025497739043275416,0.0011059433823765357
15.5,0.0025609725896149804,0.0011107945131516388
15.600000000000001,0.002551283465247538,0.0011065973084967834
15.700000000000001,0.002554897291552959,0.001108162776538442
15.8,0.002563945386410634,0.0011120822825395544
15.9,0.002549072923198202,0.0011056397242931617
16.0,0.002562125145361863,0.0011112937828488506
16.1,0.0025600240154135764,0.0011103836047405798
16.2,0.0025532466125622504,0.0011074477220619145
16.3,0.0025673501496571998,0.0011135571683921768
16.400000000000002,0.0025575678092094782,0.001109319610483928
16.5,0.0025559687844474255,0.0011086269338669112
16.6,0.002561890281359303,0.0011111920433659209
16.7,0.002565623984177256,0.0011128094233273514
16.8,0.002556363391663931,0.0011087978726556037
16.900000000000002,0.002561429991277729,0.0011109926526945394
17.0,0.0025410132090813733,0.0011021483206989239
17.1,0.0025914298169087886,0.001123987930004047
17.2,0.0025612014620900224,0.0011108936572878179
17.3,0.0025716143512399133,0.0011154043413312005
17.400000000000002,0.0025996744395062727,0.0011275592545445332
17.5,0.0025351198885089623,0.0010995953636690585
17.6,0.002564292104506089,0.0011122324751834617
17.7,0.0025669828590135,0.0011133980645384573
17.8,0.0025313712467071566,0.001097971462959249
17.900000000000002,0.0025944789992882362,0.0011253087482642416
18.0,0.002579950404740667,0.0011190153422149349
18.1,0.0025759894825073217,0.0011172995587838712
18.2,0.002585564308229589,0.0011214471487559032
18.3,0.002638337878460366,0.001144306711044107
18.400000000000002,0.0026331939025400135,0.001142078583509319
18.5,0.0026036686498114745,0.0011292894167259167
18.6,0.0025286846408326593,0.001096807629384302
18.7,0.0026122815222932934,0.0011330202099025023
18.8,0.0027105746041788943,0.0011755950431528617
18.900000000000002,0.002551102193200718,0.0011065187833798906
19.0,0.002604574359032608,0.001129681739586485
19.1,0.002524946433972097,0.0010951882386741778
19.200000000000003,0.002665752208757616,0.0011561811119718615
19.3,0.00266652543771611,0.0011565160281088347
19.400000000000002,0.00290782708196474,0.00126102072816682
19.5,0.002762598696195972,0.0011981271581618011
19.6,0.0030691075586766975,0.0013308552512025398
19.700000000000003,0.003471056158873413,0.0015048503344464329
19.8,0.003221582883998924,0.0013968668145884866
19.900000000000002,0.0006895955917533441,0.00029938434504108954
20.0,0.0020185861652943695,0.0008757772140265089
20.1,0.00183925688177807,0.0007980454340472313
20.200000000000003,0.0022685193054832273,0.0009840896248533891
20.3,0.002493081219551103,0.001081383986943816
20.400000000000002,0.0016975684076473562,0.0007366195378120784
20.5,0.0032371281489921595,0.0014035963054763942
20.6,0.003028183953197168,0.0013131363737413269
20.700000000000003,0.0038573530836691163,0.0016720044723678806
20.8,0.0012569084984048048,0.0005455256589703264
20.900000000000002,0.0027640891050255394,0.00119877265077424
21.0,0.002525723852195489,0.0010955250166414744
21.1,0.001112002597514175,0.0004826682774826645
21.200000000000003,0.0020749925381524596,0.0009002241527755082
21.3,0.001158555856840566,0.0005028631742795209
21.400000000000002,0.0026007580884150434,0.0011280286567387381
21.5,0.0020247785129956083,0.0008784610905175042
21.6,0.002051896011963802,0.0008902141140572623
21.700000000000003,0.0022189924549412695,0.0009626285403870208
21.8,0.0027748266568844845,0.0012034230312628982
21.900000000000002,0.0018726411049475847,0.0008125171591701151
22.0,0.002547973663315743,0.0011051635353705957
22.1,0.0020297334857770836,0.0008806086541931113
22.200000000000003,0.0023682150602426484,0.0010272867941505954
22.3,0.0021446641866980287,0.0009304184604893304
22.400000000000002,0.0022656594958907405,0.000982850434682985
22.5,0.002620705151106998,0.0011366689983831214
22.6,0.002348245500082214,0.0010186345284017055
22.700000000000003,0.0019099158449376562,0.0008286748144383749
22.8,0.002637598590333282,0.0011439864870307196
22.900000000000002,0.001891325704465709,0.0008206165347471816
23.0,0.0021388674863477026,0.0009279063658324162
23.1,0.003092099955426916,0.001340810055430058
23.200000000000003,0.0025660950691291126,0.0011130134893178195
23.3,0.004429374123061799,0.001919404989727724
23.400000000000002,0.004706946329176656,0.00203940488917227
23.5,0.0024717191453926756,0.001072129529281817
23.6,0.0020449915701598463,0.0008872216829082256
23.700000000000003,0.0017920175826314764,0.0007775668487769517
23.8,0.0022376214807736743,0.0009707010355124517
23.900000000000002,0.0015792487214836115,0.0006853180038235145
24.0,0.0033468550942269116,0.0014510937511621308
24.1,0.004369660784880383,0.0018935854101428994
24.200000000000003,0.003971193778721136,0.0017212520894588656
24.3,0.0035737926931220998,0.001549311632836039
24.400000000000002,0.003226605972050761,0.0013990413032546772
24.5,0.0013712531581394247,0.0005951197431468677
24.6,0.002972516689855758,0.0012890327078849042
24.700000000000003,0.002452949910989002,0.0010639981764613653
24.8,0.0074900078084687,0.0032407475425131017
24.900000000000002,0.0034752152007377466,0.0015066503317433396
25.0,0.0031389488137498213,0.0013610930638794665
25.1,0.0028175635521983603,0.001221931675294316
25.200000000000003,0.0021765550242425816,0.0009442386153001208
25.3,0.002088930943854685,0.0009062649487525324
25.400000000000002,0.0036996741745523006,0.001603783167216388
25.5,0.002779134180068085,0.0012052885842081572
25.6,0.002126324851490806,0.0009224707606762729
25.700000000000003,0.003278621771348203,0.001421558238969015
25.8,0.0028942079025588824,0.0012551231028170475
25.900000000000002,0.003004370216116502,0.0013028253001880691
26.0,0.00496823188323416,0.0021523334621056855
26.1,0.0020889275561733495,0.0009062634805680976
26.200000000000003,0.0034086055067922183,0.0014778213360296818
26.3,0.0034616730899297257,0.001500789396073995
26.400000000000002,0.011138977050359076,0.004810851751217752
26.5,0.003294323409553897,0.0014283550363105365
26.6,0.0022505519595513897,0.0009763040973374209
26.700000000000003,0.002118043224826744,0.0009188817125354757
26.8,0.0025716134689080785,0.0011154039591221821
26.900000000000002,0.0028521726723369605,0.0012369197360201296
27.0,0.0026390859325906967,0.0011446307318275168
27.1,0.0026071715418903175,0.0011308067501355052
27.200000000000003,0.002653917813219467,0.001151055133549773
27.3,0.002277173394775499,0.0009878395251317921
27.400000000000002,0.000971551604884056,0.00042173466554709714
27.5,0.0034430615604424115,0.0014927343205970085
27.6,0.0025810642975987717,0.0011194978546098888
27.700000000000003,0.0018843607023987666,0.0008175973724880331
27.8,0.0018232010294885388,0.000791085211756106
27.900000000000002,0.002929984525961035,0.0012706155773668456
28.0,0.002491336974123874,0.0010806283539750545
28.1,0.0028148374171375495,0.001220751054744649
28.200000000000003,0.003496226487725454,0.0015157437207245635
28.3,0.0026573968778388036,0.0011525620702087065
28.400000000000002,0.0036673241691227,0.0015897852995017082
28.5,0.0023094520199570035,0.0010018258788499987
28.6,0.0023109113993643048,0.0010024582184542134
28.700000000000003,0.002094605559686269,0.0009087242587884054
28.8,0.0027253431200072583,0.0011819915426605715
28.900000000000002,0.003646614807919963,0.001580824109007491
29.0,0.006173207094627404,0.0026727485235387726
29.1,0.003887681347264349,0.001685125060191747
29.200000000000003,0.0024882172655287618,0.0010792768466988906
29.3,0.01314355524941181,0.005670986165334082
29.400000000000002,0.002480648234469263,0.0010759978048353858
29.5,0.004832686270912213,0.0020937538176890123
29.6,0.0014864241791559994,0.0006450665162239013
29.700000000000003,0.0033757381185700206,0.0014635954672799296
29.8,0.0020684517991352326,0.0008973894186941578
29.900000000000002,0.001761606952511646,0.0007643831049615123
30.0,0.0037022894871010736,0.0016049147948912982
30.1,0.003832954706330479,0.0016614489792173709
30.200000000000003,0.0022099265125012156,0.0009586999513134339
30.3,0.0033733951952800456,0.00146258137075994
30.400000000000002,0.0020842005447173568,0.0009042148401961943
30.5,0.002220275467135927,0.000963184511451142
30.6,0.0020581651788654357,0.0008929311949643752
30.700000000000003,0.002627535282295909,0.0011396275231445843
30.8,0.0027220530124051085,0.0011805665483383733
30.900000000000002,0.002393705423303949,0.0010383308227773164
31.0,0.0028822461454035097,0.0012499431386031312
31.1,0.002617544539363374,0.001135299947857753
31.200000000000003,0.002095649365671963,0.000909176630192397
31.3,0.003328469722142131,0.0014431356469829168
31.400000000000002,0.0003764608064254626,0.00016346408390315774
31.5,0.0015237382928869315,0.0006612474762569723
31.6,0.0018813445575289862,0.0008162899391187886
31.700000000000003,0.004975876956608875,0.002155637248679393
31.8,0.003906928916655558,0.0016934517218275263
31.900000000000002,0.0022159694961612314,0.0009613185908580202
32.0,0.0021502575009470564,0.000932842400686609
32.1,0.0015520688560905392,0.0006735323905127881
32.2,0.004237028414590189,0.0018362307205143011
32.300000000000004,0.002270079058409682,0.000984765483217612
32.4,0.003171168644443383,0.001375041949006913
32.5,0.0030071280545614027,0.0013040194249671678
32.6,0.003314459115630499,0.001437071061192618
32.7,0.0015071941074007403,0.0006540733000141589
32.800000000000004,0.004750384432535222,0.0020581810316731165
32.9,0.002791694124784798,0.001210728147455257
33.0,0.002031126874263938,0.0008812125689174001
33.1,0.0003606602755206995,0.00015660452868131297
33.2,0.004800662128120398,0.002079912577928121
33.300000000000004,0.0034055428937244643,0.0014764957763543903
33.4,0.009336217717195209,0.004035857195101577
33.5,0.0019417727635732776,0.0008424835050253583
33.6,0.004072151647484927,0.0017649219090825992
33.7,0.003417610867876747,0.0014817190114683506
33.800000000000004,0.0009432938472788265,0.00040947421578063257
33.9,0.003691039046078439,0.0016000467858313084
34.0,0.00672453545838555,0.0029106531791233113
34.1,0.004619019284397644,0.0020013958940808814
34.2,0.002067854599030432,0.000897130593274713
34.300000000000004,0.00324210472716518,0.0014057506267410621
34.4,0.00044725260602970833,0.00019419591473752938
34.5,0.003914783848952393,0.0016968497862378897
34.6,0.0045137536966508565,0.0019558874393392897
34.7,0.008476438248061649,0.003665755936600514
34.800000000000004,0.0024104666202603626,0.001045592674533233
34.9,0.008040897178718512,0.003478152207461976
35.0,0.0017898783331068817,0.0007766394454441894
35.1,0.003845968450481111,0.001667079159629552
35.2,0.0026252342541509973,0.0011386308170522434
35.300000000000004,0.003909560640731193,0.0016945902155592488
35.4,0.005785410128997431,0.0025053314773671115
35.5,0.001142943114203409,0.0004960904400251429
35.6,0.0030737849605212094,0.0013328804008748722
35.7,0.002612283797063331,0.0011330211952485273
35.800000000000004,0.003922218115422703,0.0017000658450134433
35.9,0.006032742436679101,0.0026121155391638866
36.0,0.0032454735818943287,0.001407208971198346
36.1,0.0069332976382435515,0.0030007025028733845
36.2,0.004834281765400539,0.002094443399060651
36.300000000000004,0.004136736797673175,0.001792856228575715
36.4,0.0022983757995401243,0.0009970265945803533
36.5,0.0016607270018436017,0.00072064633992268
36.6,0.005580239626935557,0.002416730563640037
36.7,0.003055806794825642,0.0013250964389727206
36.800000000000004,0.000800775330279695,0.00034763313773332645
36.9,0.0030566613269651633,0.0013254664267961238
37.0,0.0030451760290572997,0.001320493596991013
37.1,0.006903729678769301,0.0029879495328291265
37.2,0.006234326470301789,0.002699128674833347
37.300000000000004,0.0024282566494208823,0.001053300138887166
37.4,0.00785611002183699,0.003398533018090386
37.5,0.0018751124431064547,0.0008135884402466641
37.6,0.003759825480566987,0.0016298094758854275
