Frequency (Hz),Power,Log Power
0.0,0.002810417507801498,0.0012188368963240133
0.1,0.002810421853927471,0.0012188387785328108
0.2,0.0028104325974028805,0.0012188434312886802
0.30000000000000004,0.002810451948747948,0.0012188518119177442
0.4,0.0028104781193439457,0.0012188631458096304
0.5,0.002810512572072314,0.001218878066504937
0.6000000000000001,0.0028105537614425496,0.0012188959046863003
0.7000000000000001,0.002810603037059409,0.0012189172448366554
0.8,0.002810659649536055,0.0012189417624130273
0.9,0.002810724383096021,0.0012189697970441484
1.0,0.002810796499664245,0.0012190010290860152
1.1,0.002810876405870374,0.0012190356346398405
1.2000000000000002,0.002810964049727779,0.001219073591190691
1.3,0.0028110591836034895,0.0012191147914934054
1.4000000000000001,0.0028111625074907593,0.001219159538698123
1.5,0.0028112732141895892,0.0012192074832240657
1.6,0.0028113921966327763,0.0012192590117786936
1.7000000000000002,0.002811518343127612,0.0012193136429123105
1.8,0.002811653405033549,0.0012193721350969502
1.9000000000000001,0.0028117958980886887,0.0012194338455317531
2.0,0.002811947155380677,0.001219499351544535
2.1,0.002812105566278923,0.0012195679556070542
2.2,0.0028122731245477464,0.0012196405211704936
2.3000000000000003,0.00281244785787058,0.0012197161940689732
2.4000000000000004,0.002812631953626619,0.0012197959216030628
2.5,0.002812823355314989,0.0012198788131488616
2.6,0.002813024112582095,0.0012199657563575206
2.7,0.0028132323312315085,0.0012200559308954612
2.8000000000000003,0.002813450252756722,0.0012201503074977815
2.9000000000000004,0.002813676233564084,0.0012202481743607467
3.0,0.0028139114066448776,0.0012203500221533352
3.1,0.0028141548559232343,0.0012204554541425067
3.2,0.0028144079225528177,0.0012205650511464136
3.3000000000000003,0.0028146691607894335,0.0012206781870457775
3.4000000000000004,0.0028149397992475894,0.0012207953939202807
3.5,0.0028152198948880125,0.0012209166964350726
3.6,0.002815508595949021,0.0012210417257097635
3.7,0.002815807588059813,0.0012211712117452336
3.8000000000000003,0.0028161157455237843,0.001221304667026446
3.9000000000000004,0.0028164319970257687,0.0012214416275902432
4.0,0.0028167603275168333,0.0012215838192143498
4.1000000000000005,0.002817098577544951,0.0012217303066901232
4.2,0.0028174437840060144,0.0012218798067690731
4.3,0.002817801264165179,0.0012220346222180337
4.4,0.002818166009288575,0.001222192583879068
4.5,0.0028185444094306206,0.001222356459114115
4.6000000000000005,0.0028189350460415576,0.0012225256335798432
4.7,0.0028193316728553387,0.0012226974021778824
4.800000000000001,0.002819740654403301,0.0012228745212138352
4.9,0.002820160167737012,0.0012230562012112273
5.0,0.0028205903233214334,0.0012232424900035345
5.1000000000000005,0.002821030325617458,0.0012234330430587533
5.2,0.0028214835852845834,0.0012236293374341862
5.300000000000001,0.002821950671180358,0.0012238316194785712
5.4,0.0028224276772070784,0.001224038197561363
5.5,0.002822914570707818,0.0012242490575336059
5.6000000000000005,0.0028234200839056807,0.0012244679810682424
5.7,0.002823928060933149,0.0012246879715069442
5.800000000000001,0.0028244424511998734,0.0012249107392239731
5.9,0.0028249864274427603,0.001225146319657117
6.0,0.002825535680948231,0.0012253841853908604
6.1000000000000005,0.0028260894222996635,0.0012256239945484645
6.2,0.0028266662094415234,0.0012258737840220618
6.300000000000001,0.002827249600518916,0.0012261264333187655
6.4,0.0028278469917036864,0.0012263851454927665
6.5,0.002828476604893902,0.001226657811882263
6.6000000000000005,0.0028290887573775825,0.0012269229164049843
6.7,0.002829721528463274,0.0012271969500435513
6.800000000000001,0.002830376817286163,0.001227480735237372
6.9,0.0028310485760594966,0.0012277716528615627
7.0,0.0028317051558145326,0.0012280559967414093
7.1000000000000005,0.002832392175693668,0.0012283535230748518
7.2,0.00283315359743403,0.001228683270236258
7.300000000000001,0.002833921598668247,0.0012290158665103988
7.4,0.00283466163968585,0.001229336353886032
7.5,0.002835337992324653,0.0012296292597169
7.6000000000000005,0.0028361135544432313,0.0012299651296303793
7.7,0.0028369486985200506,0.0012303268021990217
7.800000000000001,0.0028377833423870245,0.0012306882578428133
7.9,0.002838608636707952,0.0012310456642230603
8.0,0.0028394168856928944,0.0012313956885735874
8.1,0.0028402812093184637,0.0012317699965765211
8.200000000000001,0.0028412204981475364,0.0012321767689928498
8.3,0.0028421101654299515,0.0012325620517396533
8.4,0.0028432003237101734,0.001233034159425805
8.5,0.0028441897805309775,0.0012334626565479703
8.6,0.002845367930696038,0.0012339728692213469
8.700000000000001,0.0028471066435220775,0.0012347258394752537
8.8,0.0028473465584389493,0.0012348297373788806
8.9,0.002846036363897534,0.0012342623423180472
9.0,0.002849052399982013,0.0012355684708876692
9.1,0.002848771804586891,0.0012354469560410292
9.200000000000001,0.0028507940889592833,0.001236322727227013
9.3,0.0028528519452168844,0.001237213901373305
9.4,0.0028519471384878515,0.0012368220664733588
9.5,0.002852730607828563,0.0012371613551185893
9.600000000000001,0.002853845725582688,0.0012376442667199252
9.700000000000001,0.002856746087178354,0.0012389002914342728
9.8,0.002857083340039328,0.0012390463412389628
9.9,0.0028573783705098284,0.0012391741062900473
10.0,0.0028596218575513894,0.0012401456631370242
10.100000000000001,0.00285876304795441,0.0012397737502385967
10.200000000000001,0.0028577043517171168,0.001239315274734842
10.3,0.002861230300358077,0.0012408422085557597
10.4,0.00286181087146956,0.0012410936279440416
10.5,0.0028678516942116585,0.0012437096295239052
10.600000000000001,0.00286180536373006,0.0012410912427890787
10.700000000000001,0.002866566355378005,0.0012431530099058933
10.8,0.0028784798813749233,0.0012483121687035677
10.9,0.0028741495908742574,0.0012464369411785746
11.0,0.00287395559503989,0.0012463529313070214
11.100000000000001,0.002873202054536131,0.001246026610532809
11.200000000000001,0.002876767928038383,0.0012475708101672318
11.3,0.002880226777142013,0.0012490686576965052
11.4,0.002879329218516559,0.00124867997226605
11.5,0.002877679454645653,0.0012479655454013254
11.600000000000001,0.0028802680199776273,0.00124908651779093
11.700000000000001,0.0028820227029383396,0.0012498463776515428
11.8,0.0028862144603374502,0.0012516615994445858
11.9,0.0028875648913477,0.0012522463959376137
12.0,0.0028884499613444944,0.0012526296700547496
12.100000000000001,0.0028907044862763074,0.0012536059766785842
12.200000000000001,0.0028945337828925623,0.0012552642223953013
12.3,0.0028953741083554848,0.001255628117646887
12.4,0.0028967833324380064,0.0012562383685550294
12.5,0.002897760142524227,0.0012566613662460568
12.600000000000001,0.0029024740897902225,0.0012587026874611104
12.700000000000001,0.0029027628219585795,0.0012588277193287861
12.8,0.002904147531457896,0.0012594273500225234
12.9,0.002905215218054004,0.001259889697447624
13.0,0.0029091550427556966,0.0012615957816726007
13.100000000000001,0.0029103135454884924,0.001262097453285557
13.200000000000001,0.002912887388464301,0.0012632120139319612
13.3,0.0029145559753769833,0.0012639345667030215
13.4,0.002913641844287482,0.0012635387181569359
13.5,0.0029167233649646843,0.0012648731155708282
13.600000000000001,0.0029228831979444423,0.0012675405087799172
13.700000000000001,0.00292202020681141,0.0012671668086136113
13.8,0.002919948784156773,0.0012662698212710895
13.9,0.0029272072147245335,0.0012694129284949013
14.0,0.002927403297908856,0.0012694978377843556
14.100000000000001,0.0029337322709459546,0.0012722384443173225
14.200000000000001,0.0029299228361295716,0.0012705888640821377
14.3,0.0029310660977942176,0.001271083925539614
14.4,0.0029437385564187995,0.001276571385514834
14.5,0.0029384744246315517,0.0012742919063186242
14.600000000000001,0.0029444170540607155,0.0012768651883183601
14.700000000000001,0.0029441086078373633,0.0012767316250709526
14.8,0.002943396216133231,0.00127642314537268
14.9,0.0029497969876767427,0.0012791947981912561
15.0,0.002947232627452961,0.0012780843847668088
15.100000000000001,0.002959015272733025,0.0012831864555468326
15.200000000000001,0.0029585736856346974,0.0012829952424670006
15.3,0.0029529615489609948,0.0012805651053983175
15.4,0.0029698127218159226,0.0012878618682433433
15.5,0.0029551665914984027,0.0012815199226134657
15.600000000000001,0.002978867866611246,0.0012917828054592611
15.700000000000001,0.0029657787674770165,0.0012861151281017146
15.8,0.0029746566450125243,0.001289959323230011
15.9,0.002993554822063074,0.001298142278437705
16.0,0.002985341396308691,0.0012945858646695335
16.1,0.002989766532400481,0.0012965019524402517
16.2,0.0029889341716486193,0.0012961415401573425
16.3,0.002997493315449074,0.0012998476359428464
16.400000000000002,0.0030018284785182092,0.0013017247426583359
16.5,0.0029982723506890028,0.001300184955404508
16.6,0.0029983369247330916,0.0013002129157219902
16.7,0.002999948846373125,0.0013009108711275856
16.8,0.0030188605860804697,0.0013090994924502026
16.900000000000002,0.003014591671359019,0.0013072511024295069
17.0,0.0030331894846310505,0.0013153036799958338
17.1,0.0030284167981324333,0.0013132371917048042
17.2,0.0030350948213234653,0.0013161286541186626
17.3,0.0030372466352122985,0.001317060346240326
17.400000000000002,0.003014123546908928,0.0013070484095528028
17.5,0.003026274037651584,0.0013123094113635051
17.6,0.003041082739727967,0.0013187212973595635
17.7,0.0030406121377299497,0.0013185175371124688
17.8,0.0030402478739034663,0.0013183598188739557
17.900000000000002,0.003102662713843252,0.0013453832382329565
18.0,0.0029322317463265244,0.0012715886805007208
18.1,0.003252902720048668,0.0014104249555658285
18.2,0.0031378364399274254,0.0013606114774738147
18.3,0.003175258015857602,0.0013768123226732217
18.400000000000002,0.003018669843870223,0.0013090169034775433
18.5,0.0029925395193919862,0.0012977026539071643
18.6,0.0030090186521252293,0.0013048380386067658
18.7,0.002933597301922744,0.0012721799994728615
18.8,0.0031473691948160814,0.0013647385306304128
18.900000000000002,0.003015222366032855,0.0013075241863235638
19.0,0.0031713590761447597,0.0013751243909987528
19.1,0.0033355440926867387,0.001446197803945282
19.200000000000003,0.003201890436744977,0.0013883418732771782
19.3,0.0031520455233360043,0.0013667630576346026
19.400000000000002,0.003159627850995342,0.0013700456613358425
19.5,0.0032545931930799596,0.0014111567376406168
19.6,0.0030832906855698095,0.0013369960147370829
19.700000000000003,0.0032743729374555323,0.0014197190200508014
19.8,0.003273937449148099,0.0014195305071026058
19.900000000000002,0.002557283998878969,0.0011091966676406663
20.0,0.0024333655863523736,0.0010555135416408944
20.1,0.0029923966528761095,0.0012976407928848696
20.200000000000003,0.00314800859860997,0.0013650153488322363
20.3,0.0031133040316656535,0.0013499903849081179
20.400000000000002,0.0030326787876162474,0.0013150825577495477
20.5,0.0028615903815170994,0.0012409981436218923
20.6,0.002576125394372365,0.0011173584328938186
20.700000000000003,0.0019551111180892713,0.0008482650138551274
20.8,0.0037111926664320535,0.0016087671169856717
20.900000000000002,0.0036936242610851144,0.0016011654001482167
21.0,0.0031155784610676497,0.0013509750902400489
21.1,0.0032040610606841706,0.0013892815535033092
21.200000000000003,0.0031820824202864716,0.0013797667327636123
21.3,0.0033708812616990063,0.0014614932525627736
21.400000000000002,0.0033664803470626367,0.0014595883765401065
21.5,0.0026892096122952363,0.001166341329101072
21.6,0.0027426160162726,0.0011894726131016255
21.700000000000003,0.003206058142722462,0.0013901461042756475
21.8,0.0034039222673810966,0.001475794335494796
21.900000000000002,0.0038607477944713844,0.001673473108994135
22.0,0.0018639999454514403,0.0008087713496564572
22.1,0.003079802977836071,0.0013354859757696274
22.200000000000003,0.002848919015930876,0.0012355107074973597
22.3,0.004308781963072684,0.0018672603042212276
22.400000000000002,0.004278396147913106,0.001854120330017716
22.5,0.0032587869303134153,0.0014129721423691355
22.6,0.0038181119196416913,0.001655027404809044
22.700000000000003,0.004082049963949372,0.00176920323789414
22.8,0.004625255321256714,0.002004091710046216
22.900000000000002,0.0027364873673480132,0.0011868182464667572
23.0,0.003464107713091908,0.0015018430906500126
23.1,0.0035336128400055623,0.0015319235364677243
23.200000000000003,0.002553328497395534,0.0011074831936240953
23.3,0.002480052637392116,0.0010757397803025767
23.400000000000002,0.002634151409660365,0.001142493331258321
23.5,0.0031027369030472004,0.0013454153585351677
23.6,0.0031358812228459597,0.0013597649927873288
23.700000000000003,0.0030123148826472716,0.001306265276396209
23.8,0.0036263531934656638,0.0015720564849797693
23.900000000000002,0.003386639830139609,0.0014683140659840846
24.0,0.0034505246757599345,0.0014959643770608387
24.1,0.002109599327034084,0.0009152223096420958
24.200000000000003,0.003446413708250669,0.0014941851421928927
24.3,0.004380944032320985,0.001898464315557738
24.400000000000002,0.0022405413802329753,0.00097196629870793
24.5,0.0023277128829061592,0.0010097381256672755
24.6,0.0027907489463564043,0.0012103188042469617
24.700000000000003,0.0027478354773817835,0.00119173319046464
24.8,0.006623869411018124,0.0028672243231762746
24.900000000000002,0.004764144711319229,0.0020641287499491
25.0,0.003367510154068426,0.001460034115240105
25.1,0.004008728836790014,0.0017374885751084486
25.200000000000003,0.003029131074893075,0.0013135464614523458
25.3,0.0032750784882583303,0.0014200244367152993
25.400000000000002,0.003499322625287198,0.0015170836693447147
25.5,0.0038411342349927912,0.0016649877250548865
25.6,0.0035563578099315003,0.0015417666576777952
25.700000000000003,0.0037814608922715444,0.0016391703194018983
25.8,0.003188373906113584,0.0013824904147926417
25.900000000000002,0.003671572083887101,0.0015916234006267504
26.0,0.00402622391432804,0.0017450561880377057
26.1,0.003139744502521457,0.0013614375456744857
26.200000000000003,0.0031222555090281803,0.0013538658791939547
26.3,0.0030609199988675933,0.0013273103044677945
26.400000000000002,0.0033787729617479004,0.0014649090466323773
26.5,0.0034198916494125762,0.0014827061674630014
26.6,0.0031895359577064665,0.001382993483124908
26.700000000000003,0.0036390677519372912,0.0015775583608418433
26.8,0.0036938096381889363,0.001601245612121087
26.900000000000002,0.002691999877123904,0.0011675498740025992
27.0,0.0034378629354674894,0.001490484327473301
27.1,0.003602553368853335,0.001561757577400137
27.200000000000003,0.0018618078287422205,0.0008078210956977284
27.3,0.002998545673610084,0.0013003033031859018
27.400000000000002,0.0024352468152827687,0.0010563285649682296
27.5,0.0025960996973099716,0.001126010786479633
27.6,0.0034380822060099936,0.0014905792291905005
27.700000000000003,0.0030673577837083115,0.001330097658061283
27.8,0.001721263346502353,0.0007468925581421708
27.900000000000002,0.007874352040484806,0.003406393600828772
28.0,0.005923641798839773,0.0025650153083602426
28.1,0.00405959185548043,0.001759489348814484
28.200000000000003,0.0051836519120489945,0.002245416707126128
28.3,0.0033076194357274215,0.0014341104287230867
28.400000000000002,0.003761488707889731,0.0016305291000740416
28.5,0.003826116438742682,0.0016584904869894545
28.6,0.0029262674063145126,0.0012690059659607358
28.700000000000003,0.0030196315351649957,0.0013094333035256857
28.8,0.0021866531073810535,0.0009486146103963432
28.900000000000002,0.0017084126270552483,0.0007413211157188793
29.0,0.008852442073099013,0.0038276496068614637
29.1,0.0058381788774298825,0.0025281162333142294
29.200000000000003,0.0034168286528543997,0.0014813804567164874
29.3,0.0004959809204262205,0.0002153483769407557
29.400000000000002,0.009014442393219435,0.0038973824973584504
29.5,0.005475095354230671,0.002371318011646274
29.6,0.0042715448659348095,0.001851157521977505
29.700000000000003,0.006476860538191588,0.0028037946681937257
29.8,0.00444742905495235,0.0019272114985977205
29.900000000000002,0.004351558880073872,0.0018857579851197324
30.0,0.005100750624456765,0.00220959732582966
30.1,0.005245987965644249,0.0022723484669567593
30.200000000000003,0.0029985123283957633,0.0013002888648371118
30.3,0.005455091310293932,0.0023626775864785225
30.400000000000002,0.0030608500566667797,0.0013272800216481122
30.5,0.002934169934706654,0.0012724279632343263
30.6,0.0033475458285465213,0.001451392732515133
30.700000000000003,0.004364658422757581,0.0018914223582692652
30.8,0.00459290025255143,0.0019901045501526313
30.900000000000002,0.005806971228176923,0.002514641381783746
31.0,0.005870717778678907,0.002542165448172655
31.1,0.004663344528066413,0.0020205571718427406
31.200000000000003,0.0029354159311087997,0.0012729675091406973
31.3,0.005529036100855492,0.00239461599323481
31.400000000000002,0.0041506914626278126,0.0017988916534869548
31.5,0.005097332887166583,0.0022081205515178666
31.6,0.004320413251092053,0.001872290007280751
31.700000000000003,0.004104513875112936,0.0017789194194844642
31.8,0.0035588381972930824,0.0015428400574968258
31.900000000000002,0.005435775046460174,0.002354334073725437
32.0,0.003522286855361814,0.0015270220161525425
32.1,0.004413932341178428,0.0019127282313750296
32.2,0.005989700005820707,0.002593534145817535
32.300000000000004,0.005502733043244192,0.002383255384264134
32.4,0.006181829910241465,0.002676470372984601
32.5,0.0036323275539883546,0.001574641734038918
32.6,0.006049831502955742,0.002619492659050682
32.7,0.0038904573944260803,0.0016863260115723474
32.800000000000004,0.005606025596379145,0.002427866980424677
32.9,0.004392950376015802,0.0019036558294748234
33.0,0.00517718478729493,0.00224262254545808
33.1,0.006133632629797484,0.002655666663692255
33.2,0.008318929620367212,0.0035979204694145768
33.300000000000004,0.003942968003050924,0.0017090421067263574
33.4,0.0019779144079692104,0.0008581489199920747
33.5,0.0005900145621349431,0.0002561645056125338
33.6,0.001087420303424658,0.0004720040503791321
33.7,0.005611735432371008,0.002430332899642244
33.800000000000004,0.00469867195693624,0.0020358281954748134
33.9,0.0025687048641275406,0.0011141440063950842
34.0,0.006040554727527629,0.0026154880155159176
34.1,0.008627110156323609,0.0037306370662871786
34.2,0.00736491772897371,0.0031868221400964685
34.300000000000004,0.00814441070375045,0.0035227466726507678
34.4,0.004944677607722975,0.0021421544221761624
34.5,0.002189746621723122,0.0009499551731854599
34.6,0.003413086772388172,0.0014797609093638196
34.7,0.006042082395712986,0.0026161474892878274
34.800000000000004,0.005164098490179191,0.0022369684740093584
34.9,0.0019415256426159528,0.0008423763897374776
35.0,0.007029629028824823,0.003042248641425859
35.1,0.013177403260992692,0.0056854952238250545
35.2,0.009910202401873161,0.004282759589463109
35.300000000000004,0.001061197229730166,0.00046062773584885415
35.4,0.005307700160638916,0.0022990090489834907
35.5,0.0035536818768712834,0.0015406086315217504
35.6,0.011476268073128867,0.004955697521262647
35.7,0.003043620547477436,0.001319820110285992
35.800000000000004,0.0045186195123353545,0.0019579911355563965
35.9,0.002360333489730633,0.0010238719452079867
36.0,0.007275985696822377,0.0031484801300765463
36.1,0.019837361982719015,0.008530918403861765
36.2,0.0031530218990255877,0.0013671857596265948
36.300000000000004,0.00473220607741075,0.0020503235271013857
36.4,0.01877410815619038,0.008077898965525456
36.5,0.020252325615331537,0.008707593399490721
36.6,0.004209122841969334,0.0018241624495309834
36.7,0.005874789606761447,0.0025439234960579296
36.800000000000004,0.00853726765401167,0.0036919509746136756
36.9,0.01546395485185555,0.006664512195017618
37.0,0.02196350461300362,0.00943538696484891
37.1,0.019037387814903637,0.008190118279077138
37.2,0.010877642792499004,0.0046985915198832495
37.300000000000004,0.0017885706688085272,0.0007760725483613624
37.4,0.0041556633003354765,0.0018010419645450107
37.5,0.008432385191545802,0.0036467843310063744
37.6,0.0031272881903616134,0.0013560447364942977
37.7,0.008700375199448877,0.0037621823698540534
