Frequency (Hz),Power,Log Power
0.0,0.001008613024690394,0.0004378143154853307
0.1,0.0010086140399735188,0.00043781475597283996
0.2,0.0010086179983065438,0.0004378164733229667
0.30000000000000004,0.0010086242398128842,0.0004378191812434027
0.4,0.0010086333213955852,0.00043782312135060247
0.5,0.0010086450409814251,0.0004378282059734724
0.6000000000000001,0.0010086589854203772,0.00043783425586412157
0.7000000000000001,0.0010086755723405607,0.0004378414522133497
0.8,0.0010086944344651675,0.00043784963567541414
0.9,0.0010087160975577486,0.0004378590343565152
1.0,0.0010087402979551872,0.0004378695338644439
1.1,0.0010087671343638252,0.000437881177023555
1.2000000000000002,0.0010087963224647343,0.00043789384048001714
1.3,0.0010088282372331017,0.0004379076869193593
1.4000000000000001,0.0010088623407627578,0.0004379224829671358
1.5,0.0010088996145085549,0.00043793865443420043
1.6,0.0010089389443045688,0.0004379557179319234
1.7000000000000002,0.0010089815583028008,0.0004379742063021229
1.8,0.001009025562889532,0.0004379932979877972
1.9000000000000001,0.0010090731218496548,0.0004380139317612397
2.0,0.0010091222167664682,0.0004380352319187555
2.1,0.001009174730002187,0.0004380580151356244
2.2,0.0010092292119581766,0.0004380816524935389
2.3000000000000003,0.0010092868221125793,0.00043810664703976097
2.4000000000000004,0.0010093460817551822,0.00043813235722589235
2.5,0.0010094085810688257,0.00043815947296285896
2.6,0.001009473140023102,0.00043818748228675826
2.7,0.0010095409722052887,0.00043821691171991653
2.8000000000000003,0.0010096106925934025,0.00043824716036145985
2.9000000000000004,0.0010096835412310764,0.00043827876621201333
3.0,0.0010097582939172065,0.0004383111981439648
3.1,0.0010098359128426257,0.0004383448736095207
3.2,0.0010099159146232835,0.0004383795828893796
3.3000000000000003,0.0010099985597606764,0.00043841543900336686
3.4000000000000004,0.0010100839423665962,0.0004384524827822039
3.5,0.0010101712946125768,0.00043849038109853233
3.6,0.001010261473528546,0.0004385295057796936
3.7,0.0010103540463448507,0.00043856966906570804
3.8000000000000003,0.00101044941082093,0.0004386110435266183
3.9000000000000004,0.0010105468385941236,0.0004386533131575128
4.0,0.001010647574113546,0.00043869701786989506
4.1000000000000005,0.0010107504307877123,0.0004387416428534428
4.2,0.0010108557662731968,0.00043878734327938815
4.3,0.0010109633644794856,0.0004388340253952689
4.4,0.0010110740417514313,0.0004388820433766993
4.5,0.001011187134220738,0.0004389311092000486
4.6000000000000005,0.0010113031482776572,0.0004389814425654678
4.7,0.0010114187519637819,0.0004390315978833332
4.800000000000001,0.0010115403005513848,0.00043908433242422325
4.9,0.001011663056109317,0.00043913759060959024
5.0,0.001011789916034384,0.00043919262949079893
5.1000000000000005,0.0010119166543809718,0.00043924761561742973
5.2,0.0010120489069983395,0.0004393049941332712
5.300000000000001,0.0010121816698768296,0.00043936259402116104
5.4,0.0010123155418395378,0.0004394206750833371
5.5,0.0010124566760873171,0.0004394819069181244
5.6000000000000005,0.001012592932456164,0.0004395410224512984
5.7,0.0010127383614657974,0.000439604117573371
5.800000000000001,0.0010128915063480407,0.0004396705602565573
5.9,0.001013036926127261,0.00043973365135515795
6.0,0.0010131886191249184,0.00043979946411126667
6.1000000000000005,0.0010133467857818353,0.0004398680854857495
6.2,0.0010134979724862887,0.00043993367856375303
6.300000000000001,0.001013663593077416,0.00044000553384139377
6.4,0.0010138240265664805,0.0004400751386589956
6.5,0.0010139912965359001,0.0004401477095035723
6.6000000000000005,0.0010141483536115694,0.00044021584942619555
6.7,0.0010143364643164109,0.00044029746209234245
6.800000000000001,0.0010144845672562474,0.00044036171720074574
6.9,0.0010146738801294429,0.0004404438514053494
7.0,0.0010148428163753082,0.0004405171451092347
7.1000000000000005,0.0010150181822457132,0.00044059322831993243
7.2,0.001015229530778072,0.00044068492274014156
7.300000000000001,0.0010154045888269203,0.00044076087237175833
7.4,0.0010155740691788616,0.00044083440208477306
7.5,0.001015770719104082,0.0004409197194077186
7.6000000000000005,0.0010159589995330134,0.00044100140557698584
7.7,0.0010161866411659208,0.000441100168731439
7.800000000000001,0.0010163829375810487,0.00044118533263056884
7.9,0.0010165462896017342,0.0004412562034740086
8.0,0.0010167347403872349,0.0004413379634897792
8.1,0.0010169996228728661,0.00044145288363306293
8.200000000000001,0.0010172277064720023,0.0004415518384332933
8.3,0.0010174197379105106,0.00044163515187066194
8.4,0.001017711696607615,0.000441761819029649
8.5,0.0010178517297478,0.00044182257281562677
8.6,0.0010181764308666151,0.0004419634453095459
8.700000000000001,0.0010183023780929337,0.0004420180878557999
8.8,0.001018635097765729,0.0004421624391563882
8.9,0.0010186752780652895,0.000442179871481228
9.0,0.0010188450110607463,0.00044225351056398034
9.1,0.001019220686189805,0.0004424164981099288
9.200000000000001,0.0010195485021965176,0.00044255872181200753
9.3,0.001019470631857469,0.00044252493759677796
9.4,0.0010199517226006287,0.0004427336598154837
9.5,0.0010203156591093764,0.0004428915543594345
9.600000000000001,0.001020571790665202,0.00044300267748593406
9.700000000000001,0.0010208666798278022,0.0004431306156330194
9.8,0.001020779696063755,0.00044309287758818357
9.9,0.001021228160024371,0.00044328744435818295
10.0,0.001021182014948987,0.0004432674242512411
10.100000000000001,0.0010216464687406006,0.00044346892815110006
10.200000000000001,0.0010224127597845281,0.0004438013843428505
10.3,0.0010225048336794044,0.00044384133068386803
10.4,0.001022714475002198,0.0004439322837440381
10.5,0.0010228575808089006,0.00044399437030497534
10.600000000000001,0.0010229363635451477,0.00044402855025007235
10.700000000000001,0.0010232888212531141,0.00044418146423949313
10.8,0.001023046402278007,0.000444076290626526
10.9,0.0010239447073937882,0.00044446602069441235
11.0,0.0010243784488357074,0.0004446541994837053
11.100000000000001,0.0010245893515929264,0.00044474569964695666
11.200000000000001,0.0010245867041679764,0.0004447445510617381
11.3,0.0010249537205498864,0.00044490378107691524
11.4,0.0010244482438938835,0.00044468448007249655
11.5,0.0010227277778911239,0.00044393805521272665
11.600000000000001,0.001025504588760183,0.0004451427750773224
11.700000000000001,0.0010258363951027548,0.0004452867290915998
11.8,0.0010214683576182204,0.00044339165441298513
11.9,0.001029275865839923,0.00044677893892403455
12.0,0.001020752169105585,0.0004430809349728154
12.100000000000001,0.001033872634143511,0.0004487732327706808
12.200000000000001,0.0010361248196130183,0.0004497503331946891
12.3,0.0010338237354007942,0.0004487520182491875
12.4,0.0010319320860342428,0.0004479313330351615
12.5,0.0010310665766033033,0.00044755583439193275
12.600000000000001,0.0010261795518204115,0.00044543560741018654
12.700000000000001,0.0010340735938196525,0.0004488604183016589
12.8,0.0010312797667053608,0.00044764832630165896
12.9,0.0010314378651665533,0.0004477169168494943
13.0,0.001029845615621401,0.0004470261236185814
13.100000000000001,0.0010311200396331329,0.0004475790291747671
13.200000000000001,0.001033594742835383,0.0004486526707380974
13.3,0.0010320893845754307,0.0004479995764956772
13.4,0.0010331294571920707,0.00044845080834762655
13.5,0.0010396818544120183,0.00045129353208852175
13.600000000000001,0.0010347040034412937,0.00044913391881579715
13.700000000000001,0.0010397650420470512,0.00045132962249532383
13.8,0.001034681498941595,0.0004491241553380038
13.9,0.0010354488236650927,0.00044945705565764505
14.0,0.0010358975348128837,0.00044965172681740137
14.100000000000001,0.0010381481618946765,0.0004506281491675681
14.200000000000001,0.0010428694814340147,0.000452676460904371
14.3,0.0010390194448697124,0.0004510061499703194
14.4,0.0010390233942489762,0.0004510078633836693
14.5,0.0010387971856782308,0.0004509097242074274
14.600000000000001,0.0010439724794038476,0.00045315498753150426
14.700000000000001,0.0010388432418929647,0.0004509297054105129
14.8,0.0010369479407404845,0.0004501074400039958
14.9,0.001048213961868188,0.00045499511501598234
15.0,0.0010433788582395987,0.00045289744992127825
15.100000000000001,0.001040083527324364,0.0004514677952046502
15.200000000000001,0.0010392641649820482,0.00045111232023877965
15.3,0.0010417187334959435,0.00045217721778297785
15.4,0.0010472357076399018,0.00045457070926318465
15.5,0.001046930696171028,0.00045443838302197426
15.600000000000001,0.0010350667637375806,0.0004492913007384592
15.700000000000001,0.0010420529767289973,0.00045232222669199163
15.8,0.0010439202874315263,0.00045313234448406245
15.9,0.0010578340328855455,0.0004591686639272078
16.0,0.0010569028427554967,0.000458764680351578
16.1,0.0010529505089478266,0.00045705001243723307
16.2,0.0010338759127280917,0.00044877465517135704
16.3,0.0010429433730418604,0.0004527085181892114
16.400000000000002,0.0010423575916582637,0.00045245438154240013
16.5,0.0010485434059352232,0.00045513804091596897
16.6,0.0010586817443351477,0.0004595364311395064
16.7,0.0010426987712311945,0.0004526023996351791
16.8,0.001039250994658813,0.0004511066063782287
16.900000000000002,0.0010577903345431608,0.0004591497060321804
17.0,0.0010867971776942365,0.00047173372418687643
17.1,0.0010804724442850058,0.00046898990067040973
17.2,0.0010522951749027919,0.0004567657037474942
17.3,0.0010620331958142923,0.0004609904062897945
17.400000000000002,0.0010428246675595683,0.0004526570187611932
17.5,0.001082413380348278,0.00046983192788802047
17.6,0.001070865159685767,0.0004648219932708303
17.7,0.0010340296422900784,0.0004488413501124061
17.8,0.0010628937294587671,0.00046136373465537295
17.900000000000002,0.0010544164662439537,0.00045768599947265004
18.0,0.0010723445904313345,0.000465463814101613
18.1,0.0010926630784618232,0.0004742784794251777
18.2,0.0010545643715369711,0.0004577501662619372
18.3,0.0011047492500671026,0.0004795216763280048
18.400000000000002,0.0010424640683934336,0.0004525005756477158
18.5,0.001108584335915997,0.00048118539177117157
18.6,0.0010627725112520203,0.0004613111461498565
18.7,0.0010235837692226942,0.00044430942755284116
18.8,0.0013696700092980791,0.0005944331313161722
18.900000000000002,0.0009761292712500551,0.00042372078662481427
19.0,0.001028894531303131,0.00044661349769205044
19.1,0.001067981869586434,0.0004635711339892879
19.200000000000003,0.0010816422691025873,0.0004694974004971013
19.3,0.0010467659628883613,0.00045436691508236486
19.400000000000002,0.0011030873490135208,0.00047880071775029706
19.5,0.001079964049983235,0.00046876934607761644
19.6,0.0011048567825534983,0.0004795683255552974
19.700000000000003,0.0011760563803039996,0.0005104546934235841
19.8,0.0010593944496426102,0.0004598456276708435
19.900000000000002,0.0013803541350907258,0.0005990668168184626
20.0,0.0014975165035363877,0.0006498766748798604
20.1,0.0011274592040213343,0.0004893734883659796
20.200000000000003,0.0012172888431856868,0.0005283403212898495
20.3,0.0010154145381241814,0.00044076518891365395
20.400000000000002,0.0010902505232206093,0.0004732318623340062
20.5,0.0008560087106177065,0.000371600835387622
20.6,0.0013060733136580841,0.0005668503395586212
20.700000000000003,0.0001133627294705401,4.923001749066624e-05
20.8,0.001129552763189109,0.0004902816846551485
20.900000000000002,0.0012026450561185655,0.0005219882911189644
21.0,0.0013446445002880676,0.0005835794210374083
21.1,0.0009671838528147347,0.0004198396119288731
21.200000000000003,0.001871923795435436,0.0008122062177772487
21.3,0.00229208989028447,0.0009943029103663796
21.400000000000002,0.002115471929683572,0.0009177673720322173
21.5,0.0018253246521097515,0.0007920058099291471
21.6,0.0005619993654805486,0.0002440046644485329
21.700000000000003,0.0022637937517116743,0.0009820419832029267
21.8,0.0015663499933416267,0.0006797249541127743
21.900000000000002,0.0013137396599986087,0.0005701754359054625
22.0,0.0026406996376412434,0.0011453297097995482
22.1,0.002486476100337196,0.0010785225444752383
22.200000000000003,0.0003937014817713849,0.00017094873187360605
22.3,0.0026259979619992057,0.0011389616225881039
22.400000000000002,0.0021324949464528635,0.0009251447049477247
22.5,0.0007689006596457865,0.00033380100015053393
22.6,0.0023931476638981374,0.001038089169324947
22.700000000000003,0.0023101109530278404,0.0010021113903774356
22.8,0.0009740544476087615,0.0004228205799506572
22.900000000000002,0.001244067942348163,0.0005399560410718476
23.0,0.0024900583781514397,0.001080074446415914
23.1,0.00319211233788434,0.001384108831937516
23.200000000000003,0.0011312325190052088,0.0004910103696368403
23.3,0.0014256642413000482,0.0006187171762880509
23.400000000000002,0.001533958016038789,0.0006656790703938723
23.5,0.0022811756870481205,0.0009895737459887704
23.6,0.0013788612759861878,0.0005984193695703067
23.700000000000003,0.0019503705254435533,0.0008462102131213884
23.8,0.0019966370717741985,0.0008662639427813788
23.900000000000002,0.0011938907531457402,0.000518190895941628
24.0,0.003457989794577091,0.0014991952766117258
24.1,0.0012929352174122952,0.0005611519419482703
24.200000000000003,0.0005864653720705624,0.00025462401812869235
24.3,0.0012083292150929885,0.0005244539177146693
24.400000000000002,0.0014191608456277831,0.000615896799173752
24.5,0.0020207641510321494,0.0008767211946798077
24.6,0.0015925592960836926,0.0006910895597896316
24.700000000000003,0.0036871963715870864,0.0015983840674676602
24.8,0.006291549232011512,0.0027238255296231717
24.900000000000002,0.004035321823343259,0.0017489914973817856
25.0,0.0014589108214644374,0.0006331351876788992
25.1,0.0005733101135427481,0.00024891407306910506
25.200000000000003,0.0006761889791187178,0.00029356590052360585
25.3,0.0010415440029520144,0.00045210141223341884
25.400000000000002,0.001237120555824913,0.0005369425679385112
25.5,0.001058159205625001,0.00045930973540045345
25.6,0.0007123582765867183,0.00030926312865844793
25.700000000000003,0.0015705546956595409,0.0006815481734947631
25.8,0.0008842847225249517,0.0003838702751172917
25.900000000000002,0.00115445690278416,0.0005010850775314832
26.0,0.006426523813203792,0.0027820738423719005
26.1,0.0006473758255470966,0.0002810607825873948
26.200000000000003,0.0009357919956079233,0.00040621926116542374
26.3,0.0006116780116500241,0.0002655671726387521
26.400000000000002,0.0011715792350140565,0.0005085125736242335
26.5,0.0009164760127095877,0.00039783819836715015
26.6,0.0010802709660911699,0.0004689024942340131
26.700000000000003,0.0003826710179614679,0.00016616012118091024
26.8,0.0010498335381799225,0.0004556977509893638
26.900000000000002,0.0011842370652341335,0.0005140033318329623
27.0,0.0008708069868226706,0.0003780221009141421
27.1,0.001593061443882788,0.0006913072930001734
27.200000000000003,0.0018782347192996623,0.0008149418875894546
27.3,0.000994353924842305,0.0004316278627344419
27.400000000000002,0.001343417549944541,0.0005830472784897304
27.5,0.0016885402482921471,0.0007327052850648919
27.6,0.00032576463621087313,0.00014145474467966223
27.700000000000003,0.0007078314645774811,0.0003072985542164514
27.8,0.0010673176378517544,0.0004632829694709683
27.900000000000002,0.0025043140639063083,0.0010862501900930376
28.0,0.0019719634796681014,0.000855569558749602
28.1,0.0014398376272620912,0.0006248637930305472
28.200000000000003,0.0009537629582528897,0.00041401658434147995
28.3,0.0009140752000002581,0.00039679649210374836
28.400000000000002,0.0005568297375771364,0.00024176077883879206
28.5,0.0007577579176231192,0.00032896545988629454
28.6,0.0014940906743165592,0.0006483910783144048
28.700000000000003,0.0010220725560755827,0.0004436537866300913
28.8,0.00033478428959848807,0.00014537063705531307
28.900000000000002,0.0049113704357073,0.002127760236055657
29.0,0.009621893029547482,0.004158759410792143
29.1,0.005163683713144325,0.002236789264052565
29.200000000000003,0.004005242956101703,0.0017359807183218122
29.3,0.002997858667316473,0.0013000058320222334
29.400000000000002,0.0046498078573085,0.0020147055190960343
29.5,0.003029702477596996,0.0013137938689930049
29.6,0.0011123010304557974,0.0004827977412790636
29.700000000000003,0.0020150386814780687,0.000874239662333821
29.8,0.0012902461695625356,0.0005599856097293999
29.900000000000002,0.0015482939953583204,0.0006718955267626119
30.0,0.0016871738304658917,0.0007321128572763068
30.1,0.0008721723355652662,0.00037861454802745034
30.200000000000003,0.0022200023466198726,0.0009630661594759816
30.3,0.002409595411986056,0.0010452152232563522
30.400000000000002,0.0026205593187200176,0.0011366058297240611
30.5,0.001702912966398421,0.0007389367104346344
30.6,0.0013940273793434331,0.0006049968053219363
30.700000000000003,0.0016022097210231364,0.000695274001925817
30.8,0.002422591314728719,0.0010508456684237002
30.900000000000002,0.002266598355685683,0.0009832572544053023
31.0,0.0009644434080745488,0.0004186506002638957
31.1,0.0011028025533054756,0.00047867716881355997
31.200000000000003,0.0026366896589490054,0.0011435927814045334
31.3,0.0029912965607513577,0.0012971644540780611
31.400000000000002,0.00297013280325781,0.00128800046621517
31.5,0.0019567056131834606,0.0008489561424916705
31.6,0.0030856708648752786,0.0013380265348558761
31.700000000000003,0.0030267144568236807,0.0013125001058438904
31.8,0.000672798639313281,0.00029209448711360305
31.900000000000002,0.0008391501188143892,0.0003642854423710834
32.0,0.0029715680029097145,0.0012886219192603419
32.1,0.0008413592823091267,0.00036524406439983353
32.2,5.693035143489954e-05,2.4723833719368476e-05
32.300000000000004,0.0012757473511308892,0.0005536969212572526
32.4,0.004116426259676858,0.0017840717239735486
32.5,0.0035878941829357424,0.0015554139804972319
32.6,0.002789127670970059,0.0012096166522537523
32.7,0.0017049895089354336,0.000739837007337883
32.800000000000004,0.001391314574105508,0.0006038202874789425
32.9,0.0013506920343942434,0.0005862022969621891
33.0,0.000943502936569883,0.0004095649365201358
33.1,0.005645253777080243,0.0024448082573206922
33.2,0.002111053716529614,0.0009158526128289988
33.300000000000004,0.0024753239612448383,0.001073691218043922
33.4,0.005815244009569537,0.0025182134474346423
33.5,0.004869282288268117,0.0021095705394195757
33.6,0.0021045394293432163,0.0009130294445149242
33.7,0.00537886088332187,0.002329749503314947
33.800000000000004,0.004344149588618683,0.0018825541007482117
33.9,0.005732417031633555,0.0024824486478354554
34.0,0.00631532983899791,0.0027340886232242335
34.1,0.005704673291322357,0.0024704682052124117
34.2,0.005195875398022483,0.00225069789153526
34.300000000000004,0.004927324003034936,0.002134654865237973
34.4,0.005245625650820767,0.0022721919367554074
34.5,0.005295457899322315,0.0022937203409511705
34.6,0.007324105865096743,0.0031692270005262927
34.7,0.00158354776204754,0.0006871821055307707
34.800000000000004,0.008492235660545707,0.003672558946641376
34.9,0.008443712455507376,0.0036516625367022174
35.0,0.005253581891239844,0.0022756292435672644
35.1,0.004077475292711843,0.0017672245559716858
35.2,0.006403377565662477,0.0027720856286857784
35.300000000000004,0.00840602737988998,0.00363543284931461
35.4,0.006807363584436986,0.002946383229516763
35.5,0.00478647778115681,0.002073781782708068
35.6,0.007536407328301984,0.00326074832789111
35.7,0.0022042220819302074,0.0009562280043646084
35.800000000000004,0.007530128143612112,0.003258041702364241
35.9,0.013670495582669109,0.005896805878877146
36.0,0.012992285495421639,0.005606137976740025
36.1,0.03769718143563725,0.01607063711697462
36.2,0.020555805842907813,0.008836757711552214
36.300000000000004,0.011895476644502242,0.0051356545384487395
36.4,0.0035701107668666267,0.0015477182839458503
36.5,0.003853592974749891,0.0016703777495986182
36.6,0.028392601658759745,0.012158943631720126
36.7,0.02343661834842594,0.010060951879941367
36.800000000000004,0.04298237812594685,0.018276970797275215
36.9,0.08296996324359401,0.034616411400517084
37.0,0.01570218149283474,0.006766385216867163
37.1,0.014003916596972995,0.006039632465924883
37.2,0.007891887938802309,0.0034139497784486973
