Frequency (Hz),Power,Log Power
0.0,0.0006083754840244815,0.0002641337775239831
0.1,0.000608378102784875,0.0002641349141456451
0.2,0.0006083848155627317,0.0002641378276954909
0.30000000000000004,0.000608396569047843,0.0002641429290655756
0.4,0.0006084142575617586,0.00026415060641865
0.5,0.0006084341412434788,0.0002641592365411656
0.6000000000000001,0.0006084582699332048,0.000264169709125959
0.7000000000000001,0.0006084880427203699,0.00026418263142024884
0.8,0.0006085213439772324,0.000264197085177166
0.9,0.0006085612078667054,0.00026421438731534774
1.0,0.0006086047265767901,0.0002642332757557637
1.1,0.0006086528570040514,0.0002642541658204132
1.2000000000000002,0.0006087079349076247,0.0002642780712992127
1.3,0.0006087653575194933,0.0002643029944511043
1.4000000000000001,0.0006088274230916388,0.0002643299327865853
1.5,0.0006088940202882426,0.0002643588379823606
1.6,0.0006089644796437116,0.00026438941946967375
1.7000000000000002,0.0006090411713331295,0.0002644227059756307
1.8,0.0006091217069079033,0.00026445766084103636
1.9000000000000001,0.0006092068743264537,0.00026449462606301436
2.0,0.0006092989261481546,0.0002645345793195993
2.1,0.0006093957572782592,0.0002645766069357164
2.2,0.0006094966157020053,0.0002646203825136859
2.3000000000000003,0.0006096022941269136,0.0002646662501119066
2.4000000000000004,0.0006097114110580853,0.00026471361011968543
2.5,0.0006098265603149454,0.0002647635883313439
2.6,0.0006099470355352286,0.0002648158781638236
2.7,0.0006100702826871934,0.0002648693710907161
2.8000000000000003,0.000610200728063442,0.0002649259882536823
2.9000000000000004,0.0006103361542910158,0.0002649847672460549
3.0,0.0006104770751236221,0.0002650459310512291
3.1,0.000610623907578085,0.0002651096606657994
3.2,0.0006107736853771527,0.0002651746686371495
3.3000000000000003,0.0006109303291546187,0.0002652426566347395
3.4000000000000004,0.0006110917580724723,0.0002653127215125406
3.5,0.0006112569903613911,0.0002653844371531074
3.6,0.0006114283179485653,0.00026545879831868616
3.7,0.0006116055717698841,0.0002655357316291928
3.8000000000000003,0.0006117887642012817,0.0002656152424546533
3.9000000000000004,0.0006119776540286176,0.0002656972260999366
4.0,0.0006121715724210335,0.0002657813922717422
4.1000000000000005,0.0006123704891287326,0.0002658677278395189
4.2,0.0006125770742145903,0.0002659573916856255
4.3,0.0006127859697094932,0.0002660480582965987
4.4,0.0006130020165532431,0.0002661418287773069
4.5,0.0006132244196341541,0.0002662383580247167
4.6000000000000005,0.0006134492673069312,0.00026633594827254586
4.7,0.0006136861750750998,0.00026643877291915085
4.800000000000001,0.0006139268657295167,0.00026654323941993803
4.9,0.0006141703704719572,0.00026664892728847336
5.0,0.0006144246659387674,0.00026675929860560106
5.1000000000000005,0.0006146823673039251,0.0002668711481489284
5.2,0.0006149570998602056,0.00026699038967007116
5.300000000000001,0.0006152184054435555,0.00026710380348358173
5.4,0.0006154879082663466,0.00026722077509349913
5.5,0.0006157835932241249,0.00026734911043125394
5.6000000000000005,0.0006160556953518349,0.0002674672101439032
5.7,0.0006163565134095847,0.0002675977733126397
5.800000000000001,0.0006166699717689061,0.00026773382267214485
5.9,0.000616972385268986,0.00026786507822525147
6.0,0.000617303265040202,0.0002680086888565737
6.1000000000000005,0.0006176169755196404,0.0002681448475141389
6.2,0.0006179395520005266,0.0002682848542066768
6.300000000000001,0.0006182881064666597,0.0002684361359786255
6.4,0.0006186262112324852,0.0002685828822564057
6.5,0.0006189888576352172,0.0002687402801889473
6.6000000000000005,0.000619318692635473,0.00026888343707344426
6.7,0.0006196919600947122,0.0002690454447066415
6.800000000000001,0.0006200808963427326,0.00026921425293107484
6.9,0.00062045016818229,0.00026937452624130396
7.0,0.0006208485746477936,0.0002695474446490694
7.1000000000000005,0.0006212336613479383,0.00026971458187897415
7.2,0.0006216038368064853,0.00026987524719749906
7.300000000000001,0.0006219806608956049,0.00027003879812531964
7.4,0.0006224729437332672,0.00027025246089852314
7.5,0.0006229184353887319,0.00027044581506546273
7.6000000000000005,0.0006233345970385222,0.0002706264392218527
7.7,0.0006237731989574066,0.0002708168029129112
7.800000000000001,0.0006242173582649068,0.00027100957855817604
7.9,0.000624729096925916,0.00027123168513521476
8.0,0.0006251572496886751,0.0002714175133854137
8.1,0.0006255730477536852,0.00027159797933355375
8.200000000000001,0.0006259691375829788,0.0002717698913831039
8.3,0.0006265507836912791,0.0002720223389805751
8.4,0.000627053667662784,0.0002722406019066838
8.5,0.0006276712942632071,0.00027250866555809315
8.6,0.0006282266276656983,0.00027274969243778227
8.700000000000001,0.0006287221232848442,0.0002729647482939139
8.8,0.0006300884939117213,0.0002735577822586706
8.9,0.0006293053805159685,0.0002732178944585264
9.0,0.0006302910810383322,0.00027364570931913504
9.1,0.0006304949948492457,0.0002737342121704322
9.200000000000001,0.0006304319943420158,0.00027370686863687377
9.3,0.0006322137811550398,0.00027448020059551477
9.4,0.0006323728393472551,0.0002745492350407555
9.5,0.0006332382138953955,0.0002749248247564924
9.600000000000001,0.0006340409943509393,0.00027527324710436955
9.700000000000001,0.0006345782807374148,0.00027550643970081733
9.8,0.0006351418802620639,0.0002757510525695078
9.9,0.0006354565464053438,0.0002758876235756633
10.0,0.000636530562755721,0.0002763537664862822
10.100000000000001,0.0006370692317421796,0.00027658755857582835
10.200000000000001,0.0006372961573693368,0.00027668604836752337
10.3,0.0006379230875482513,0.00027695814719192174
10.4,0.0006387143302190889,0.00027730156031073827
10.5,0.0006394304397094513,0.0002776123640847367
10.600000000000001,0.0006398552365552967,0.0002777967330804462
10.700000000000001,0.0006417199315036959,0.0002786060412123886
10.8,0.0006406339091248298,0.00027813468990558137
10.9,0.000643207824930798,0.0002792518102341822
11.0,0.0006435716259294947,0.0002794097054122757
11.100000000000001,0.0006436233007961326,0.00027943213308730184
11.200000000000001,0.0006456206324061026,0.0002802990043798239
11.3,0.0006453500005610897,0.00028018154628032377
11.4,0.0006477135450472784,0.0002812073573890043
11.5,0.0006489210084794653,0.0002817314123407988
11.600000000000001,0.0006476541680940635,0.00028118158699687735
11.700000000000001,0.0006512908357354388,0.00028275994658493554
11.8,0.0006512235999162851,0.0002827307654441278
11.9,0.0006507350936296803,0.0002825187478785676
12.0,0.0006499004389301324,0.00028215649752608656
12.100000000000001,0.0006527018780833397,0.00028337235520215317
12.200000000000001,0.000653789645267637,0.0002838444580886921
12.3,0.0006581769097564679,0.00028574857377878615
12.4,0.0006566260256040236,0.00028507547584488203
12.5,0.0006581034548233908,0.00028571669368827337
12.600000000000001,0.0006580590664132187,0.0002856974287245396
12.700000000000001,0.0006583702476845712,0.00028583248413813504
12.8,0.0006577729914506293,0.00028557326963312476
12.9,0.0006589314365964708,0.00028607604496438174
13.0,0.0006598516060479759,0.0002864754061441222
13.100000000000001,0.000666403424676554,0.0002893189391960182
13.200000000000001,0.0006633785225568959,0.00028800611378291207
13.3,0.000665938277753913,0.00028911706293826916
13.4,0.000664518677580532,0.0002885009482734672
13.5,0.0006711879761085931,0.0002913954547166421
13.600000000000001,0.0006763544324381225,0.0002936377074262961
13.700000000000001,0.0006674577360380169,0.0002897765156307329
13.8,0.0006761648615927061,0.0002935554334927219
13.9,0.0006879358390701998,0.0002986640197447797
14.0,0.0006816060287437827,0.00029591689919685295
14.100000000000001,0.0006854641515523365,0.00029759131612039683
14.200000000000001,0.0006645656842132674,0.0002885213494372749
14.3,0.0006705842649080636,0.0002911334420542229
14.4,0.0006803754819733694,0.0002953828432118977
14.5,0.0006878112032780216,0.0002986099283160709
14.600000000000001,0.000685831559790418,0.00029775077016146883
14.700000000000001,0.0006899483996391825,0.0002995374619433111
14.8,0.0006745208868068076,0.00029284194616341884
14.9,0.0006909404359333461,0.00029996800056874927
15.0,0.0006948708984743622,0.0003016737968057515
15.100000000000001,0.0006789780022112567,0.0002947763376903288
15.200000000000001,0.0006989749943326754,0.0003034549416694765
15.3,0.0006969205614653624,0.0003025633351065508
15.4,0.0006930707351156978,0.0003008925379633272
15.5,0.0006958632116295131,0.0003021044534689199
15.600000000000001,0.0006877902485954082,0.0002986008340680539
15.700000000000001,0.0006865612268351648,0.00029806744323272646
15.8,0.0006986789541164027,0.0003033264628215827
15.9,0.0007133509679831845,0.00030969394194690095
16.0,0.0006978821342057946,0.00030298064980588353
16.1,0.0007111199440209193,0.0003087257101601138
16.2,0.0007153471239944275,0.00031056024264658087
16.3,0.0007068511726347986,0.00030687311976243655
16.400000000000002,0.000684324894066681,0.0002970968815164499
16.5,0.0006701765084771262,0.0002909564743220442
16.6,0.0007029837415011947,0.00030519469891014585
16.7,0.0006979383431869033,0.00030300504403119657
16.8,0.0007183174995705913,0.0003118493363045067
16.900000000000002,0.0007362493939476014,0.0003196313993170781
17.0,0.0007083949035855161,0.00030754307951697636
17.1,0.0007669050626456003,0.00033293498839809667
17.2,0.0007244128095756791,0.00031449458761303523
17.3,0.0007228148616699244,0.00031380110946566727
17.400000000000002,0.0007378611192306221,0.00032033084718210904
17.5,0.0007108338398310342,0.0003086015449677756
17.6,0.0007161240706266744,0.0003108974249482772
17.7,0.0006361544343701465,0.00027619051988460525
17.8,0.0006951851674054195,0.00030181018727316395
17.900000000000002,0.0007386876678773006,0.000320689547878829
18.0,0.0007531680711553225,0.00032697361965403906
18.1,0.0007327401895937464,0.0003181084897994729
18.2,0.0007864865741035263,0.0003414325307663174
18.3,0.0007578156478773058,0.00032899051283231186
18.400000000000002,0.0006919726021908627,0.0003004159549377558
18.5,0.0007099414024036412,0.00030821423945470114
18.6,0.0006448701675600223,0.0002799732918028664
18.7,0.0007344248915203979,0.00031883961021268996
18.8,0.0006888438193529038,0.0002990580793046568
18.900000000000002,0.0007083966553587153,0.00030754383976384236
19.0,0.0007154570810629237,0.0003106079622559944
19.1,0.0007721805006833098,0.0003352243202886855
19.200000000000003,0.0008043738782736493,0.00034919471398855544
19.3,0.0007273335538329753,0.00031576213065155113
19.400000000000002,0.0007128762708715409,0.00030948793052030355
19.5,0.0007570658945749054,0.0003286651455566643
19.6,0.0007197834942290418,0.00031248555222374805
19.700000000000003,0.0007898757744956612,0.00034290328257578914
19.8,0.001043207190233191,0.0004528229731544374
19.900000000000002,0.000556489746180398,0.00024161320459999532
20.0,0.0014841037922549783,0.0006440602795241147
20.1,0.0009261257609724562,0.0004020251733257715
20.200000000000003,0.0004693828279930719,0.00020380254513101045
20.3,0.0006517848206573965,0.00028297434182403286
20.400000000000002,0.000854953673655075,0.0003711430303001669
20.5,0.0010105650721176406,0.0004386612238819595
20.6,0.0007317904051473546,0.00031769630548366377
20.700000000000003,0.0005047871781467295,0.00021917097330880327
20.8,0.0017480627995116091,0.0007585112581729859
20.900000000000002,0.0013579680760572397,0.0005893579678865437
21.0,0.0010633831368865722,0.00046157605587377593
21.1,0.0013750830111512317,0.0005967807463398387
21.200000000000003,0.0011695368820818293,0.0005076266280664319
21.3,0.0007875990557376438,0.0003419152954446783
21.400000000000002,0.001508766393760629,0.0006547551071524816
21.5,0.0005156733589247702,0.00022389637050902633
21.6,0.0027188139783143835,0.0011791636701429093
21.700000000000003,0.0011243892594373325,0.0004880417278348081
21.8,0.0017436877495847227,0.0007566145096180362
21.900000000000002,0.0005599819100838253,0.00024312898594968155
22.0,0.0003706262803828842,0.00016093112760783089
22.1,0.0023157787238746843,0.0010045671918475967
22.200000000000003,0.001223792761101333,0.0005311614935955297
22.3,0.0013068467245762026,0.0005671857894008309
22.400000000000002,0.003355026035374849,0.0014546304943982673
22.5,0.001552113045062815,0.0006735515517995415
22.6,0.0014480268327563962,0.000628415191808699
22.700000000000003,0.0010384144102140013,0.0004507436594113714
22.8,0.0005811187188410229,0.00025230335092142945
22.900000000000002,0.0013454977602598275,0.0005839494893665595
23.0,0.0010664160852206512,0.0004628918474133443
23.1,0.000527657555967786,0.00022909832747372328
23.200000000000003,0.0006939338018041635,0.0003012671033017719
23.3,0.0006010046193167618,0.00026093458617374154
23.400000000000002,0.0009815581636926113,0.00042607621905529653
23.5,0.0007192611651090178,0.00031225887067165206
23.6,0.0010822320279076426,0.00046975325267574795
23.700000000000003,0.0007431886271042495,0.0003226428423640381
23.8,0.0007408705131729601,0.00032163684475524404
23.900000000000002,0.001431961947895338,0.000621448333198299
24.0,0.000897434148980223,0.0003895759155434709
24.1,0.0017160928994669846,0.0007446509141902315
24.200000000000003,0.0008977113194474914,0.0003896961812007669
24.3,0.0005741116141771404,0.00024926196078486445
24.400000000000002,0.0015713407944733658,0.0006818890363940332
24.5,0.00098874860268007,0.00042919591365228556
24.6,0.0010180612753343593,0.00044191348476311593
24.700000000000003,0.001179033111736191,0.0005117459509452028
24.8,0.003127716397821434,0.0013562301248287196
24.900000000000002,0.003116802299418364,0.0013515049453530768
25.0,0.0004667102860580908,0.00020264241790949718
25.1,0.0008171463328072115,0.0003547372268645967
25.200000000000003,0.0010067822242300366,0.00043702000936832387
25.3,0.001393470038331533,0.000604755092083493
25.400000000000002,0.0009160303452067168,0.00039764482460919674
25.5,0.0008981217674031328,0.0003898742765682258
25.6,0.0002164497826014467,9.399277420209449e-05
25.700000000000003,0.0008823131268080344,0.00038301477763689795
25.8,0.0009743390804648606,0.0004229440741218397
25.900000000000002,0.0005377547221884574,0.0002334811362970997
26.0,0.0029066013888888625,0.001260489959485705
26.1,0.0015364732585775238,0.0006667697519177444
26.200000000000003,0.0013769754634459657,0.0005976014985497294
26.3,0.0014984497969408772,0.0006502813927947436
26.400000000000002,0.00026997315643281317,0.00011723202806240958
26.5,0.0024225879313442833,0.001050844202589613
26.6,0.0011185134219083245,0.0004854927425823338
26.700000000000003,0.0005112963820536861,0.0002219964491874072
26.8,0.0008548777187824883,0.000371110071694946
26.900000000000002,0.0002949678181963723,0.0001280840063802631
27.0,0.0005852332526702814,0.00025408922877807584
27.1,0.0006499810067182693,0.0002821914649450831
27.200000000000003,0.0011014762304566413,0.0004781017882686319
27.3,0.0008436840504407801,0.00036625284844875197
27.400000000000002,0.0019556430909900857,0.0008484955958756812
27.5,0.001260110513580181,0.0005469145285862861
27.6,0.0013218714173681599,0.0005737023654519268
27.700000000000003,0.0013204557949245395,0.0005730883796119105
27.8,0.0009133225030612944,0.00039646989838490134
27.900000000000002,0.0010666033188210966,0.0004629730753024937
28.0,0.0009310390971547518,0.00040415702851423886
28.1,0.0007129604376768314,0.0003095244576585388
28.200000000000003,0.0034505837103796246,0.0014959899273078764
28.3,0.0016651880514038054,0.0007225805326498216
28.400000000000002,0.004391426428804368,0.001902996881832335
28.5,0.004483299048560431,0.0019427203860606975
28.6,0.0008520401764231508,0.00036987879355148215
28.700000000000003,0.00363288261772521,0.0015748819226465362
28.8,0.00495716927710752,0.002147552758509846
28.900000000000002,0.009073443699850999,0.003922776774861449
29.0,0.011910412629196756,0.005142064852569334
29.1,0.0067736504369776025,0.0029318405477883835
29.200000000000003,0.005361570494092264,0.002322280492879457
29.3,0.004644792694246771,0.0020125375367175814
29.400000000000002,0.007146125780199867,0.0030924864582772458
29.5,0.002851168466434727,0.001236484855075296
29.6,0.003205019022052132,0.0013896962618895863
29.700000000000003,0.0013220200499592181,0.0005737668305467258
29.8,0.004653440061470221,0.0020162756616080636
29.900000000000002,0.0013884242471174314,0.0006025667766334539
30.0,0.0036144062948903137,0.0015668867293312252
30.1,0.003098620696135529,0.001343633238369231
30.200000000000003,0.0025583175834531955,0.0011096444025012195
30.3,0.0016995448800552467,0.0007374764533528087
30.400000000000002,0.0005460610275359446,0.0002370865650642223
30.5,0.0011327477743560356,0.0004916676925913335
30.6,0.0024262742167153266,0.0010524412640196782
30.700000000000003,0.0033246083800737383,0.001441464247405869
30.8,0.004228704758647601,0.0018326310396379992
30.900000000000002,0.002556503566797383,0.0011088585947106886
31.0,0.003170996783416512,0.0013749675466473803
31.1,0.003090514205985059,0.0013401234955651932
31.200000000000003,0.0038554664411751417,0.001671188261586633
31.3,0.0035134109723220027,0.0015231807820077381
31.400000000000002,0.0010155996450738423,0.000440845498285667
31.5,0.004204270087713708,0.0018220637537119493
31.6,0.005460602278126608,0.002365057977588153
31.700000000000003,0.0035396360788715257,0.0015345301771611415
31.8,0.002071582840216646,0.0008987464035762655
31.900000000000002,0.00023040859973511878,0.0001000536572790648
32.0,0.003956434313411919,0.0017148674426717074
32.1,0.0019663110009756303,0.0008531195428619162
32.2,0.003827076160345956,0.0016589056999336154
32.300000000000004,0.003175993937617545,0.0013771309176940673
32.4,0.003131184795680039,0.0013577317316753558
32.5,0.0040702277543790515,0.0017640897607567089
32.6,0.004188916457430432,0.0018154236227316634
32.7,0.003359001910427973,0.0014563514178305963
32.800000000000004,0.0015005521029670208,0.0006511930456768114
32.9,0.0005109126494215022,0.0002218298813563244
33.0,0.0067166765561131265,0.002907262886056479
33.1,0.006447904422096326,0.002791299932516341
33.2,0.0020386021648893596,0.0008844524536601354
33.300000000000004,0.0024722724613826883,0.0010723692388020579
33.4,0.007383701470766341,0.0031949200986532236
33.5,0.007272442648045069,0.003146952515737345
33.6,0.008248051789521857,0.003567391504969699
33.7,0.00415375839569697,0.0018002180978996588
33.800000000000004,0.0051312484836170645,0.0022227749609982183
33.9,0.0019188339400334957,0.0008325404935685931
34.0,0.005968470998534883,0.0025843693024786016
34.1,0.0017705494977521207,0.000768259956191036
34.2,0.003185059550899862,0.0013810555810209874
34.300000000000004,0.004725230311914516,0.0020473082490395857
34.4,0.00426123244520972,0.0018466979209527921
34.5,0.008039868791841381,0.0034777091470911056
34.6,0.007872964350767292,0.0034057956429578208
34.7,0.00830980980913913,0.003593992444771373
34.800000000000004,0.014131704587019352,0.00609436018573256
34.9,0.005959454245439036,0.0025804765923421696
35.0,0.005050101379488546,0.002187711717010854
35.1,0.005990134579199773,0.002593721754875303
35.2,0.005558841186181701,0.0024074888112125613
35.300000000000004,0.002010960805060024,0.0008724722209665746
35.4,0.000182803639046116,7.938335614740835e-05
35.5,0.008107547319091059,0.003506866152877468
35.6,0.005670398224103077,0.0024556669155151732
35.7,0.010981306084110649,0.004743125185881374
35.800000000000004,0.01209286710396181,0.005220364104944167
35.9,0.002439363938157437,0.0010581122613013362
36.0,0.003037584266464881,0.0013172065335985657
36.1,0.005508917669919178,0.0023859266261106386
36.2,0.0035739437510377654,0.0015493770028315395
36.300000000000004,0.009807125789986918,0.004238431006280261
36.4,0.001011851400161613,0.00043921930471738774
36.5,0.010829857082515068,0.004678061279811456
36.6,0.03580119957722224,0.015276409645252887
36.7,0.005892641806665808,0.0025516312576882604
36.800000000000004,0.00610446051442036,0.002643074427437728
36.9,0.008194195814957833,0.003544192871233469
37.0,0.001644648558447562,0.0007136750819908423
37.1,0.00752996402113623,0.003257970957589945
37.2,0.01402675374242972,0.0060494134287078834
