Frequency (Hz),Power,Log Power
0.0,0.0009967795311434102,0.0004326802424520689
0.1,0.00099678152931611,0.0004326811093833229
0.2,0.0009967875529575624,0.0004326837228125022
0.30000000000000004,0.0009967976333659849,0.00043268809631881385
0.4,0.0009968117072952198,0.0004326942024619431
0.5,0.0009968297603564443,0.00043270203499919775
0.6000000000000001,0.0009968518479198318,0.00043271161795339257
0.7000000000000001,0.0009968778752055254,0.00043272291020308675
0.8,0.0009969078411776048,0.00043273591129873614
0.9,0.000996941818287571,0.0004327506526740833
1.0,0.0009969795635406532,0.00043276702890278606
1.1,0.0009970213120838668,0.00043278514200589585
1.2000000000000002,0.0009970668561914322,0.00043280490185906346
1.3,0.0009971162534340655,0.00043282633343975886
1.4000000000000001,0.0009971694105358343,0.0004328493962787172
1.5,0.0009972262713098337,0.00043287406599854954
1.6,0.000997286962900227,0.00043290039776184164
1.7000000000000002,0.000997351139188885,0.00043292824140091343
1.8,0.000997418954274685,0.0004329576637730188
1.9000000000000001,0.0009974903685754642,0.00043298864770467265
2.0,0.0009975652989693232,0.00043302115713220694
2.1,0.0009976436478536656,0.0004330551497091615
2.2,0.0009977253883531748,0.00043309061377508427
2.3000000000000003,0.0009978104512248284,0.0004331275192878101
2.4000000000000004,0.0009978987793978365,0.0004331658414859574
2.5,0.000997990290104104,0.00043320554445929686
2.6,0.0009980849514364726,0.00043324661436426636
2.7,0.0009981826230428276,0.0004332889903070861
2.8000000000000003,0.0009982832557795516,0.0004333326509658739
2.9000000000000004,0.0009983868016936563,0.00043337757553520487
3.0,0.0009984931875901336,0.00043342373225830467
3.1,0.0009986022460023516,0.0004334710484774695
3.2,0.0009987140259108788,0.00043351954544300364
3.3000000000000003,0.0009988283542255194,0.00043356914805749446
3.4000000000000004,0.0009989449424296483,0.0004336197311444642
3.5,0.0009990640297445823,0.00043367139849227694
3.6,0.000999185460899354,0.0004337240827345585
3.7,0.0009993089493576697,0.00043377765955411054
3.8000000000000003,0.0009994346323401247,0.0004338321884851891
3.9000000000000004,0.000999561656308267,0.0004338872992105942
4.0,0.0009996914220655301,0.0004339435994836611
4.1000000000000005,0.00099982267919514,0.0004340005467972828
4.2,0.0009999553916600296,0.0004340581255160936
4.3,0.001000089695223492,0.0004341163945423268
4.4,0.0010002255839057245,0.00043417535128107657
4.5,0.0010003620682380468,0.0004342345664408934
4.6000000000000005,0.0010004996616172419,0.0004342942627642501
4.7,0.0010006390826682455,0.00043435475203361834
4.800000000000001,0.00100077920316389,0.0004344155447558481
4.9,0.0010009198903369418,0.0004344765833283387
5.0,0.0010010625600303533,0.00043453848202885785
5.1000000000000005,0.0010012028817681167,0.0004345993620363014
5.2,0.0010013447300880585,0.0004346609043582206
5.300000000000001,0.0010014882086142119,0.0004347231539526393
5.4,0.001001629945905319,0.0004347846480859996
5.5,0.0010017743553860693,0.0004348473015665271
5.6000000000000005,0.0010019141974522332,0.000434907973420444
5.7,0.0010020588506052122,0.00043497073260273186
5.800000000000001,0.0010021978727262214,0.00043503104869824265
5.9,0.0010023303054389966,0.00043508850590733613
6.0,0.001002474899348719,0.00043515123936027416
6.1000000000000005,0.0010026045665181792,0.00043520749669623406
6.2,0.0010027485038282713,0.0004352699452600283
6.300000000000001,0.0010028831626068676,0.00043532836823701566
6.4,0.0010030239138640168,0.00043538943448477964
6.5,0.0010031663081350023,0.0004354512135605621
6.6000000000000005,0.0010032895638253303,0.00043550468917849777
6.7,0.001003411253895612,0.0004355574855313608
6.800000000000001,0.0010035327142111114,0.0004356101821964653
6.9,0.001003678386334113,0.00043567338336661957
7.0,0.001003793725066336,0.0004357234241139234
7.1000000000000005,0.0010038951137398254,0.0004357674124978395
7.2,0.0010040004446272704,0.0004358131112418351
7.300000000000001,0.001004138434712302,0.00043587297946251626
7.4,0.0010042202341421925,0.0004359084688658177
7.5,0.001004327288596143,0.00043595491537942434
7.6000000000000005,0.0010044370164382702,0.00043600252176077966
7.7,0.0010045618416105989,0.0004360566782441115
7.800000000000001,0.001004631347000926,0.0004360868337574693
7.9,0.0010047542522016947,0.0004361401572342102
8.0,0.001004752637636409,0.0004361394567412983
8.1,0.0010049442189588038,0.0004362225759302494
8.200000000000001,0.0010049543785285368,0.00043622698374564723
8.3,0.0010050704455053059,0.00043627734038420736
8.4,0.0010050517124055084,0.0004362692128710093
8.5,0.0010051590063636933,0.0004363157632569385
8.6,0.0010051014994913914,0.00043629081341743295
8.700000000000001,0.0010048653367056024,0.0004361883521945714
8.8,0.0010055090742607077,0.0004364676431228512
8.9,0.001005499260574928,0.0004364633853745135
9.0,0.0010054765378428438,0.000436453526929878
9.1,0.0010055168230601365,0.000436471005003249
9.200000000000001,0.0010056526687301042,0.00043652994276123015
9.3,0.0010053485434482372,0.0004363979955025653
9.4,0.0010053422354176394,0.00043639525871112973
9.5,0.0010057473284380226,0.00043657101164702955
9.600000000000001,0.0010053191307502684,0.00043638523455911043
9.700000000000001,0.0010052105460342752,0.0004363381241745954
9.8,0.001005411203842853,0.00043642518123420857
9.9,0.0010055143439439986,0.00043646992941835736
10.0,0.0010055233255593585,0.00043647382616603683
10.100000000000001,0.0010052737120187694,0.0004363655292643322
10.200000000000001,0.0010049790922221917,0.000436237705990974
10.3,0.0010041954481002653,0.0004358977152234905
10.4,0.001004702881778497,0.00043611786973584305
10.5,0.0010040581911549362,0.0004358381650854063
10.600000000000001,0.001005452023658687,0.0004364428912487325
10.700000000000001,0.0010056858788452766,0.0004365443512407973
10.8,0.0010046001757933736,0.000436073309860328
10.9,0.001002677517261708,0.00043523914706769843
11.0,0.0010039021836803852,0.000435770479854632
11.100000000000001,0.0010034559492789576,0.00043557687703155623
11.200000000000001,0.0010043650247989137,0.00043597128756064734
11.3,0.0010042726870965243,0.00043593122604057506
11.4,0.001003423197559976,0.0004355626673992757
11.5,0.0010040713980384137,0.0004358438950087604
11.600000000000001,0.001002672638425371,0.0004352370303383436
11.700000000000001,0.0010033558809948407,0.00043553346149136644
11.8,0.0010075070171397164,0.00043733446622599216
11.9,0.0009967070539016066,0.0004326487973286232
12.0,0.0009951864594726027,0.00043198906861355286
12.100000000000001,0.0010027944175298388,0.00043528986535203336
12.200000000000001,0.0009984640777073552,0.00043341110260730435
12.3,0.0010002357519325294,0.0004341797627865128
12.4,0.001002160226502699,0.0004350147155198935
12.5,0.0009934255074875694,0.00043122505654528975
12.600000000000001,0.0009973857541064769,0.0004329432594900499
12.700000000000001,0.0009975830902802282,0.0004330288761001
12.8,0.0009970006028079295,0.00043277615703977973
12.9,0.0009962948544519395,0.0004324699595941549
13.0,0.0009999090843560959,0.00043403803459905396
13.100000000000001,0.0009952171170673802,0.00043200236980038813
13.200000000000001,0.0009945571216009382,0.000431716022294747
13.3,0.0009965168925640234,0.00043256629353331745
13.4,0.000996015539166712,0.00043234877522545684
13.5,0.000997337895528623,0.0004329224954829454
13.600000000000001,0.0009945607622837093,0.0004317176018521668
13.700000000000001,0.000994093604226152,0.00043151491921843935
13.8,0.0009932842240411306,0.0004311637588145871
13.9,0.0009940917084420191,0.0004315140967075725
14.0,0.0009886627056220887,0.0004291586458808794
14.100000000000001,0.0009869655775280532,0.00042842231986779536
14.200000000000001,0.000990406572364538,0.00042991524889935903
14.3,0.0009891383178170865,0.0004293649975713846
14.4,0.0009865989418555753,0.0004282632489866882
14.5,0.0009968888445383503,0.0004327276693795339
14.600000000000001,0.0009837162505163734,0.00042701254418638145
14.700000000000001,0.0009840235037675467,0.0004271458514208929
14.8,0.0009806239255549533,0.00042567088225959287
14.9,0.0009935646650149734,0.0004312854319089717
15.0,0.0009825446688760907,0.00042650423248159
15.100000000000001,0.000981769305881538,0.00042616782701459697
15.200000000000001,0.0009855349666528614,0.0004278016256187653
15.3,0.000981406107730681,0.00042601024674068864
15.4,0.0009721357808010732,0.0004219881236026867
15.5,0.0009744416485181355,0.0004229885754997301
15.600000000000001,0.0009852350037754998,0.0004276714816383441
15.700000000000001,0.0009747644015039954,0.0004231286088634848
15.8,0.0009844474877976094,0.0004273298042926375
15.9,0.0009734657933305675,0.0004225651793448062
16.0,0.0009668078676131037,0.00041967648137709206
16.1,0.0009726855910754533,0.0004222266712047235
16.2,0.0009683771661421871,0.00042035736025544245
16.3,0.0009637741609477051,0.0004183602298783243
16.400000000000002,0.0009665262183747243,0.00041955428079430907
16.5,0.000974799438427996,0.000423143810388082
16.6,0.0009483116729152075,0.0004116513706066057
16.7,0.0009621604210305723,0.0004176600657722643
16.8,0.0009738638963105197,0.0004227379050953179
16.900000000000002,0.0009370658693537429,0.0004067719799220404
17.0,0.0009689303559455018,0.0004205973750432332
17.1,0.000949534851154348,0.00041218208655753716
17.2,0.0009594414449757664,0.0004164803629348456
17.3,0.0009624779087101853,0.00041779781635960093
17.400000000000002,0.0009335728910076971,0.00040525641623699783
17.5,0.0009244471975789823,0.00040129685640819625
17.6,0.0009324934602462181,0.00040478806240337186
17.7,0.0008830911964246579,0.0003833523909658712
17.8,0.0009399436882120999,0.0004080206289090883
17.900000000000002,0.0010273779008144344,0.0004459555099408325
18.0,0.0009744047543370807,0.0004229725681584133
18.1,0.0009865293522276035,0.0004282330563821652
18.2,0.0010079100357839024,0.00043750931879876266
18.3,0.0009457472204409865,0.0004105386967828534
18.400000000000002,0.0008972716998259604,0.00038950542802432806
18.5,0.0008484200122086439,0.0003683079118205044
18.6,0.0008284798541609696,0.00035965526602205016
18.7,0.0009156148073532878,0.0003974645239358444
18.8,0.0007378576741019337,0.0003203293520849285
18.900000000000002,0.0008516123707432644,0.0003696931580345453
19.0,0.0009365971124063886,0.00040656859190678986
19.1,0.0010419121455030433,0.0004522611281312887
19.200000000000003,0.000894920617014795,0.00038848527988379777
19.3,0.0010408447822430255,0.0004517980603860621
19.400000000000002,0.0008244831122485763,0.00035792093645521054
19.5,0.0008263280334820598,0.00035872151476469495
19.6,0.0009721848351244171,0.00042200940693388307
19.700000000000003,0.0006487053318835843,0.0002816378059183964
19.8,0.0007518036675980079,0.0003263815122704768
19.900000000000002,0.0036470778271845304,0.0015810244650513708
20.0,0.0006529760934645171,0.0002834913677330807
20.1,0.0017862956232844818,0.0007750862715480906
20.200000000000003,0.0018558323563469304,0.0008052307959109503
20.3,0.0010574640077900003,0.00045900813385456085
20.400000000000002,0.0017641298057753476,0.0007654768381049858
20.5,0.0008070150073198248,0.0003503408183493715
20.6,0.0023377690807303685,0.0010140953127025431
20.700000000000003,0.0028904218672527768,0.0012534835905609948
20.8,0.0011383680224235529,0.0004941057667395762
20.900000000000002,0.002784969276440465,0.0012078157037867371
21.0,0.003537300210662133,0.0015335192994459814
21.1,0.00034351067556742556,0.00014915917345602184
21.200000000000003,0.0017255166986929794,0.0007487365875462984
21.3,0.0005810834264137144,0.00025228803251658375
21.400000000000002,0.0022753089507061984,0.0009870316462877412
21.5,0.0006976350002239315,0.0003028733957186921
21.6,0.0017571753364757875,0.0007624618587946892
21.700000000000003,0.0011380618406662802,0.0004939729448717626
21.8,0.00035443185909912647,0.00015390052860304282
21.900000000000002,0.001730844674897288,0.0007510465062547084
22.0,0.001682041069115966,0.000729887476238665
22.1,0.000538172259708724,0.00023366237303932237
22.200000000000003,0.0010343541693849888,0.0004489821448301279
22.3,0.0011415970301817523,0.0004955065101679922
22.400000000000002,0.0026809787269213626,0.0011627762735119487
22.5,0.0014385914779894338,0.0006243233750552177
22.6,0.0014016674779160814,0.0006083102263162478
22.700000000000003,0.0005348826348073866,0.0002322344732045777
22.8,0.0010101172222624925,0.00043846692147284354
22.900000000000002,0.0012950396388427818,0.0005620646994663602
23.0,0.001119982937674161,0.0004861302316620688
23.1,0.0021971021039122788,0.0009531426270729296
23.200000000000003,0.0005122187056776505,0.00022239680436302324
23.3,0.0014496238466414036,0.0006291077627122616
23.400000000000002,0.0009238088255556293,0.00040101987093113864
23.5,0.001056551623328325,0.0004586123087077181
23.6,0.0007104363477317953,0.0003084290389313208
23.700000000000003,0.0006735150434166321,0.000292405408163879
23.8,0.0010832589533502014,0.0004701987583595606
23.900000000000002,0.0008168554330788899,0.0003546109938502905
24.0,0.0003939963659736905,0.00017107674803637998
24.1,0.0020859321495150084,0.0009049653018423808
24.200000000000003,0.001300054161820389,0.0005642396570155489
24.3,0.0003997531387529611,0.00017357589084135362
24.400000000000002,0.0011897659051637863,0.0005164016297225884
24.5,0.00032336972027304184,0.00014041498337565128
24.6,0.00021776797252787125,9.456513254921602e-05
24.700000000000003,0.0006836003663167032,0.0002967824381801227
24.8,0.0055713050324844955,0.002412871833970043
24.900000000000002,0.0031434684987908025,0.0013630497916624208
25.0,0.002218508437745089,0.0009624187997517362
25.1,0.0023321175812273526,0.0010116466152237328
25.200000000000003,0.002109680846770565,0.0009152576386822717
25.3,0.0011398772685273992,0.000494760478197673
25.400000000000002,0.0009344250242391034,0.00040562614766852717
25.5,0.0015660131563940464,0.0006795788964380366
25.6,0.0020437262874745178,0.0008866732987140791
25.700000000000003,0.0014002446995128098,0.0006076931859531705
25.8,0.0018956570608824079,0.0008224940638529061
25.900000000000002,0.0012498391986258816,0.0005424593443240089
26.0,0.005482974664996981,0.0023747213060640294
26.1,0.0006437165904954084,0.0002794726222272832
26.200000000000003,0.0012608378003681018,0.0005472299875971037
26.3,0.001873305094244084,0.0008128049869638844
26.400000000000002,0.0006558898834264623,0.00028475598302893005
26.5,0.0012072792780666248,0.0005239984859301874
26.6,0.0008592583794231792,0.0003730109392654266
26.700000000000003,0.0017335878879932208,0.0007522358084362932
26.8,0.0021788331086045718,0.0009452258249273176
26.900000000000002,0.0017556245085412563,0.000761789523669709
27.0,0.0007503862290520713,0.0003257663885478891
27.1,0.0008737516720008606,0.00037929984688655203
27.200000000000003,0.0020495068515213066,0.0008891786383123503
27.3,0.0013680982468861035,0.0005937514567073299
27.400000000000002,0.0007813734842728413,0.0003392136834883033
27.5,0.0010049911770137815,0.0004362429490800593
27.6,0.0006254053896337653,0.00027152521185244303
27.700000000000003,0.001654861027547121,0.0007181029959950456
27.8,0.0017521453840852756,0.0007602812045348
27.900000000000002,0.0016900419481728215,0.0007333563651727107
28.0,0.0008090360868006773,0.0003512178533487229
28.1,0.0012031676262575495,0.0005222149677759248
28.200000000000003,0.002130319532133696,0.0009242019439206554
28.3,0.0008825242732519795,0.00038310639652612945
28.400000000000002,0.0001913782531461636,8.310656715647879e-05
28.5,0.0007818314875106152,0.00033941243642137835
28.6,0.0002593922114127489,0.00011263799798700189
28.700000000000003,0.0028827772104807405,0.0012501731143279987
28.8,0.0021372002185402156,0.0009271838254396396
28.900000000000002,0.006281575394213554,0.0027195210075503565
29.0,0.003488526135256146,0.0015124111387687334
29.1,0.0009246309956773764,0.00040137660517731223
29.200000000000003,0.0014235529856325394,0.0006178015739767496
29.3,0.007116871080991149,0.003079871269042517
29.400000000000002,0.00815914641280235,0.003529094563181121
29.5,0.003793512780627954,0.001644384638845407
29.6,0.0056736839489462225,0.0024570858394885073
29.700000000000003,0.0020296030027214577,0.0008805521009064518
29.8,0.0037500940885703484,0.0016255989962218136
29.900000000000002,0.0013565618576168604,0.0005887480827532704
30.0,0.0009674274118539135,0.0004199452860564188
30.1,0.00024769023009420916,0.00010755718026975844
30.200000000000003,0.0015519717805831219,0.0006734902964863761
30.3,0.0014584779396526538,0.0006329474633292028
30.400000000000002,0.002118290714638089,0.0009189889688081614
30.5,0.0016785157720418241,0.0007283590273918576
30.6,0.0031013746636898557,0.001344825575040554
30.700000000000003,0.0009996590767889582,0.00043392956613727275
30.8,0.0022119885972739523,0.0009595935276919954
30.900000000000002,0.0009091499967596292,0.0003946594516670935
31.0,0.0008452599696522058,0.00036693668398619575
31.1,0.0004714806514226324,0.00020471318987422203
31.200000000000003,0.0020336899345867075,0.000882323434140592
31.3,0.00048425280253918047,0.000210257415225503
31.400000000000002,0.0008952959685925884,0.0003886481472189161
31.5,0.0029290823879214853,0.0012702249282141895
31.6,0.002705949389496819,0.001173591763345358
31.700000000000003,0.0006967058637036621,0.0003024701579804769
31.8,0.0014286069671716427,0.0006199933646020811
31.900000000000002,0.003170838869827659,0.001374899182424449
32.0,0.0015166427052220727,0.0006581705791579324
32.1,0.000929958163015336,0.0004036880211928101
32.2,0.0012582486273275914,0.0005461069385617504
32.300000000000004,0.0019299281172960878,0.0008373493794063874
32.4,0.0008549546969050786,0.00037114347431235463
32.5,0.0027818179038998207,0.0012064508789266558
32.6,0.002126051067985136,0.0009223521102835719
32.7,0.00208780286985703,0.000905776053432929
32.800000000000004,0.00165988342222346,0.0007202805852130501
32.9,0.00415368604246975,0.0018001868052732212
33.0,0.0020139267978519122,0.0008737577482180765
33.1,0.0018346374559727004,0.000796042921420365
33.2,0.0025104675653974695,0.0010889159377638537
33.300000000000004,0.011303293517520413,0.004881421612389538
33.4,0.001125070813673166,0.0004883373905378706
33.5,0.004958187276765126,0.0021479926891093803
33.6,0.001717736966321203,0.0007453636995610487
33.7,0.0016082461076111206,0.0006978913698395542
33.800000000000004,0.0028182478521459886,0.0012222280278918489
33.9,0.0028091683494991335,0.0012182959138151061
34.0,0.003181963293332902,0.0013797151606886205
34.1,0.0013352698881412613,0.0005795135268362328
34.2,0.0018518217867362907,0.0008034922506220818
34.300000000000004,0.00391749874904882,0.0016980242529909683
34.4,0.002321942225626478,0.0010072377739402858
34.5,0.0021099229249459937,0.0009153625505547201
34.6,0.0010602963760209946,0.00046023691461632597
34.7,0.004726163715789006,0.0020477117145359398
34.800000000000004,0.00101292828979059,0.0004396865189379602
34.9,0.0062654532560080835,0.002712562903655508
35.0,0.005180844995589499,0.002244203963535208
35.1,0.004106823018182073,0.0017799181670508778
35.2,0.004587209366537702,0.0019876443223403053
35.300000000000004,0.005116862887072721,0.002216559225574512
35.4,0.008108786167566464,0.0035073998506239125
35.5,0.005831989480566153,0.0025254438062468115
35.6,0.0017337123548730783,0.0007522897701646626
35.7,0.0007069494541179107,0.0003069157727168654
35.800000000000004,0.0037511965041547926,0.001626075980229049
35.9,0.0020168457092284518,0.0008750228656218763
36.0,0.0016986690940874799,0.0007370967494971622
36.1,0.004049037849429539,0.00175492431032791
36.2,0.005129005731202706,0.0022218059173176974
36.300000000000004,0.004424217762938816,0.0019171754805616802
36.4,0.002239834002907378,0.0009716597753087428
36.5,0.004632173038846004,0.0020070821945247703
36.6,0.0020138533934264957,0.0008737259331532103
36.7,0.0047199759273056354,0.002045037024888371
36.800000000000004,0.006625701069323017,0.0028680145670746705
36.9,0.004571954994669773,0.0019810496337313967
37.0,0.005929427688684657,0.0025675132840531053
37.1,0.0025693970446968827,0.001114443846292839
37.2,0.0035442225241565472,0.0015365150148851283
