Frequency (Hz),Power,Log Power
0.0,0.08018082549189881,0.03349646376449366
0.1,0.08018086897906075,0.033496481248820084
0.2,0.08018100206588269,0.03349653475733001
0.30000000000000004,0.08018122328188299,0.033496623698792846
0.4,0.08018153434981475,0.033496748765831454
0.5,0.08018193271240816,0.03349690893024714
0.6000000000000001,0.08018241813160662,0.03349710409628864
0.7000000000000001,0.08018299149942919,0.033497334622550834
0.8,0.08018365209903497,0.03349760022076709
0.9,0.08018440029957823,0.03349790103929378
1.0,0.08018523431307151,0.033498236359187375
1.1,0.08018615361501559,0.03349860596949028
1.2000000000000002,0.08018715832440318,0.033499009917956485
1.3,0.08018824626901559,0.03349944733114011
1.4000000000000001,0.08018941858435834,0.03349991866547458
1.5,0.08019067298983439,0.033500423003927235
1.6,0.08019201019209504,0.03350096063049454
1.7000000000000002,0.08019342599248286,0.03350152985697201
1.8,0.08019492348038476,0.033502131925329456
1.9000000000000001,0.08019649843714148,0.0335027651393126
2.0,0.08019815278088363,0.03350343026997103
2.1,0.08019988213019588,0.03350412555560954
2.2,0.08020168663343447,0.03350485105572992
2.3000000000000003,0.08020356572127707,0.03350560654128532
2.4000000000000004,0.08020551565878446,0.03350639051049453
2.5,0.08020753731068159,0.03350720331086351
2.6,0.08020962880830657,0.03350804419094133
2.7,0.0802117877670023,0.03350891219182399
2.8000000000000003,0.08021401388882625,0.0335098071935625
2.9000000000000004,0.08021630445426702,0.033510728102626654
3.0,0.08021865798354431,0.03351167432391623
3.1,0.08022107275854416,0.03351264516651147
3.2,0.08022354691336399,0.03351363988007726
3.3000000000000003,0.08022607773364629,0.033514657373168256
3.4000000000000004,0.08022866546285558,0.03351569774350679
3.5,0.08023130637565498,0.03351675949319981
3.6,0.08023399977431102,0.03351784234157565
3.7,0.08023674134408638,0.03351894455379492
3.8000000000000003,0.0802395307669015,0.03352006600183114
3.9000000000000004,0.0802423651977099,0.03352120554172895
4.0,0.08024524312778987,0.03352236256678954
4.1000000000000005,0.08024816250769076,0.03352353625292832
4.2,0.08025111922141444,0.03352472494525106
4.3,0.08025411138457364,0.03352592788605454
4.4,0.0802571382292204,0.03352714476648307
4.5,0.08026019576069586,0.033528373980456216
4.6000000000000005,0.0802632810753413,0.0335296143605213
4.7,0.08026639322377377,0.03353086552490676
4.800000000000001,0.08026952788996818,0.0335321257383728
4.9,0.0802726858682205,0.033533395320166005
5.0,0.08027585961811266,0.033534671238791315
5.1000000000000005,0.08027904996273955,0.033535953825094215
5.2,0.08028225199552062,0.03353724110647472
5.300000000000001,0.08028546465085784,0.03353853265450111
5.4,0.08028868583795212,0.033539827628598584
5.5,0.08029190538344731,0.03354112193888577
5.6000000000000005,0.08029513264051695,0.033542419345481696
5.7,0.0802983512155508,0.03354371325790643
5.800000000000001,0.08030156982416156,0.0335450071799745
5.9,0.08030478191997081,0.03354629847996926
6.0,0.0803079770441523,0.033547582953362506
6.1000000000000005,0.08031116571736749,0.03354886482961221
6.2,0.08031432173965604,0.03355013357616053
6.300000000000001,0.08031746933951302,0.03355139893313137
6.4,0.08032059772146287,0.03355265656071727
6.5,0.08032367934746107,0.03355389538858032
6.6000000000000005,0.0803267610246777,0.03355513423349955
6.7,0.08032978910507446,0.03355635152886937
6.800000000000001,0.08033278144754963,0.03355755445415963
6.9,0.08033575201251561,0.033558748621569295
7.0,0.08033864096201082,0.03355990997640215
7.1000000000000005,0.08034153921536558,0.03356107506825668
7.2,0.08034430537193288,0.033562187054560745
7.300000000000001,0.08034708806914113,0.033563305687278035
7.4,0.08034978057679165,0.033564388061425116
7.5,0.08035242668308178,0.03356545177983707
7.6000000000000005,0.08035503826168398,0.03356650161577685
7.7,0.08035752646443375,0.03356750185314461
7.800000000000001,0.08035997823635697,0.03356848744336151
7.9,0.08036236880635689,0.03356944842880326
8.0,0.08036469680960014,0.0335703842609854
8.1,0.08036681072867315,0.033571234031894416
8.200000000000001,0.08036893645547993,0.03357208854769843
8.3,0.08037108672662538,0.033572952928311646
8.4,0.08037305274366609,0.033573743239701616
8.5,0.08037475455157371,0.03357442734154911
8.6,0.08037658995628774,0.03357516514614794
8.700000000000001,0.0803781236013955,0.03357578164704296
8.8,0.08037973592377733,0.033576429774004886
8.9,0.08038127612184268,0.03357704890727985
9.0,0.08038244721011342,0.033577519664140715
9.1,0.08038371897174648,0.03357803088934241
9.200000000000001,0.08038477041257426,0.033578453549106074
9.3,0.08038549423366484,0.033578744511556534
9.4,0.0803862956342054,0.03357906665925784
9.5,0.08038726775054433,0.03357945743112672
9.600000000000001,0.08038762113742447,0.03357959948569496
9.700000000000001,0.08038807871041904,0.03357978342096102
9.8,0.08038856542400807,0.03357997907008249
9.9,0.08038837207705034,0.03357990134848578
10.0,0.08038848057015545,0.03357994496053831
10.100000000000001,0.08038852291863671,0.03357996198377741
10.200000000000001,0.08038776914023513,0.03357965897989715
10.3,0.0803875087138159,0.03357955429362281
10.4,0.0803868079725483,0.03357927260935487
10.5,0.08038569275428963,0.03357882431307595
10.600000000000001,0.08038510072387747,0.033578586328055104
10.700000000000001,0.08038387882943486,0.03357809514920269
10.8,0.08038270602911957,0.03357762370475433
10.9,0.0803808150195235,0.03357686355212793
11.0,0.08037874700037341,0.033576032243248254
11.100000000000001,0.08037726263756732,0.033575435553411075
11.200000000000001,0.08037488465783975,0.033574479642317745
11.3,0.08037233071270973,0.03357345299350925
11.4,0.08037030118413778,0.03357263715080155
11.5,0.08036888022894363,0.03357206594535012
11.600000000000001,0.08036582836979478,0.0335708391352446
11.700000000000001,0.08036140025373288,0.03356905908050617
11.8,0.08035987474463917,0.03356844584066893
11.9,0.0803559662923865,0.033566874676877835
12.0,0.08035311349100564,0.033565727871961534
12.100000000000001,0.08034651615396712,0.033563075779989335
12.200000000000001,0.08034518235292708,0.033562539597588065
12.3,0.08033909518663206,0.03356009257396703
12.4,0.08033280166278095,0.03355756258069569
12.5,0.08032898867215076,0.033556029753302144
12.600000000000001,0.08032361446883501,0.03355386930710987
12.700000000000001,0.08031873756571217,0.03355190876781649
12.8,0.08031254396223099,0.033549418895677745
12.9,0.08030659651144643,0.03354702796521829
13.0,0.08030420742195161,0.033546067525344045
13.100000000000001,0.08029806713378522,0.03354359905319685
13.200000000000001,0.08028970742882516,0.033540238325364125
13.3,0.08028785652129322,0.033539494229025225
13.4,0.0802813868960325,0.03353689331951099
13.5,0.08026846756325712,0.03353169946117655
13.600000000000001,0.0802580542971162,0.033527513052004645
13.700000000000001,0.0802462002913511,0.03352274737817513
13.8,0.08023979788014646,0.03352017339078584
13.9,0.08024211960664662,0.03352110680568671
14.0,0.08022206817309173,0.03351304536500499
14.100000000000001,0.08021772872387606,0.03351130072129725
14.200000000000001,0.08020924049925704,0.03350788807262566
14.3,0.08018239421064956,0.03349709447870964
14.4,0.08020279212244358,0.033505295516738164
14.5,0.08018701765638282,0.0334989533616935
14.600000000000001,0.08018102433402259,0.03349654371039455
14.700000000000001,0.0801586502547138,0.03348754795912809
14.8,0.08015109925620678,0.033484511952846796
14.9,0.08014874578461778,0.03348356569556984
15.0,0.08012923857222363,0.03347572237655104
15.100000000000001,0.08011628526724868,0.03347051412701554
15.200000000000001,0.08012379032879795,0.0334735317608924
15.3,0.08008905512307403,0.03345956525920554
15.4,0.08008574718720032,0.033458235164719775
15.5,0.08007269475837167,0.03345298684801697
15.600000000000001,0.08004006011061233,0.03343986434095354
15.700000000000001,0.08003344213656614,0.033437203181871024
15.8,0.0800129985607876,0.03342898249551545
15.9,0.08000378168539042,0.033425276192710775
16.0,0.08000595279598602,0.03342614924558289
16.1,0.0799924330665637,0.03342071262681188
16.2,0.07997089391759975,0.03341205105980896
16.3,0.07997150281082185,0.03341229591723369
16.400000000000002,0.07994510384240365,0.03340167983485606
16.5,0.0799196649423616,0.03339144958889426
16.6,0.07991429882865975,0.03338929157711265
16.7,0.07987946937055841,0.03337528446061379
16.8,0.07987121699316148,0.03337196559423839
16.900000000000002,0.07988106658569016,0.03337592681119532
17.0,0.07984289359989453,0.03336057455563287
17.1,0.07983217890482963,0.03335626526577609
17.2,0.0798179636670768,0.03335054804408965
17.3,0.0797551617608069,0.03332528886575247
17.400000000000002,0.07978405046347183,0.03333690820017942
17.5,0.07975511611240065,0.033325270505246196
17.6,0.07974019304901948,0.033319268173078974
17.7,0.0797069696692854,0.03330590481718031
17.8,0.07969645494902489,0.03330167542221329
17.900000000000002,0.07964917662938943,0.03328265788927706
18.0,0.07961415441861133,0.03326856979481668
18.1,0.07975374190433564,0.033324717776807636
18.2,0.0796468471133979,0.03328172082837438
18.3,0.0796069614883621,0.03326567629781173
18.400000000000002,0.07962273058141933,0.033272019699002155
18.5,0.07955216582820836,0.03324363303796945
18.6,0.07954487428400372,0.033240699703011536
18.7,0.07959983628950165,0.03326281002807715
18.8,0.0796406080105754,0.033279211104232306
18.900000000000002,0.07958130511580123,0.03325535536266983
19.0,0.07949245983589105,0.03321961317038696
19.1,0.0795463406966223,0.03324128963168529
19.200000000000003,0.0793917864810711,0.03317910902332187
19.3,0.07947033972092542,0.03321071385644696
19.400000000000002,0.07946273256059191,0.03320765331900076
19.5,0.07936096435205187,0.03316670752847784
19.6,0.079361764487726,0.0331670294730272
19.700000000000003,0.0793652810887261,0.033168444418388225
19.8,0.07928218441017928,0.033135008269547746
19.900000000000002,0.0792979389880619,0.0331413477388731
20.0,0.07929865802009946,0.03314163706726972
20.1,0.07918689627639419,0.033096663397164945
20.200000000000003,0.07923782923578714,0.03311715973688346
20.3,0.07919493624685522,0.033099898890304534
20.400000000000002,0.07916689836285123,0.03308861561229939
20.5,0.07918977316508435,0.03309782113473771
20.6,0.07924775485185484,0.033121153870844335
20.700000000000003,0.0792808014698098,0.03313445178509477
20.8,0.07899658951778714,0.0330200719711901
20.900000000000002,0.07906324432120362,0.033046899599295146
21.0,0.07906748747603659,0.03304860735379093
21.1,0.07906710766356065,0.03304845448986593
21.200000000000003,0.07899137520147058,0.0330179732117529
21.3,0.07890612621514188,0.03298365910337158
21.400000000000002,0.07889802579568421,0.03298039841127559
21.5,0.0789224818074732,0.032990242706417254
21.6,0.07895743689430353,0.03300431281402115
21.700000000000003,0.07881837782778864,0.032948336113459764
21.8,0.07897310900396472,0.03301062099734862
21.900000000000002,0.07896661885090409,0.03300800865593377
22.0,0.07877265244248206,0.032929928285242174
22.1,0.07877760206124451,0.03293192090822888
22.200000000000003,0.07860835337452768,0.03286377939588048
22.3,0.07890266239632501,0.03298226480244332
22.400000000000002,0.07864326854117284,0.0328778375280483
22.5,0.07892708179935518,0.03299209431936088
22.6,0.07886310776506754,0.032966342445783184
22.700000000000003,0.07855139658201908,0.032840845516551746
22.8,0.07865913206465978,0.03288422461658263
22.900000000000002,0.07859311181208749,0.03285764243874385
23.0,0.07855092125644371,0.032840654119720196
23.1,0.07836719509125342,0.032766667759912105
23.200000000000003,0.07872563106455731,0.03291099791099937
23.3,0.07822394444618871,0.03270897210900117
23.400000000000002,0.07860025963547303,0.0328605204934376
23.5,0.07884170752472244,0.03295772773052867
23.6,0.07885499958774057,0.03296307850072996
23.700000000000003,0.07847078517202766,0.03280838494118063
23.8,0.07851781425837474,0.03282732289263581
23.900000000000002,0.07849898844975257,0.03281974210347196
24.0,0.07802703220630176,0.0326296511947237
24.1,0.07867532832365547,0.032890745576627176
24.200000000000003,0.07842529132045067,0.03279006442131999
24.3,0.07862891503629132,0.032872058333365706
24.400000000000002,0.07842379091796266,0.0327894601912637
24.5,0.07835350468171098,0.03276115413979431
24.6,0.07837412479591424,0.032769458574431816
24.700000000000003,0.0785762063598146,0.03285083542125615
24.8,0.07867021034047507,0.032888684977790426
24.900000000000002,0.07847851995232763,0.03281149968513411
25.0,0.07859358848116603,0.03285783436904866
25.1,0.07800245487292555,0.032619749845665506
25.200000000000003,0.07805122767021858,0.032639398481417475
25.3,0.07787691569993749,0.032569170976646036
25.400000000000002,0.07891415418930196,0.03298689060963767
25.5,0.07868466363728281,0.03289450412894146
25.6,0.07877332910105109,0.03293020069573553
25.700000000000003,0.07926451263246326,0.03312789722992271
25.8,0.07888854062541122,0.03297658027914556
25.900000000000002,0.08024180449353127,0.03352098011935911
26.0,0.07472074892973204,0.03129563359710731
26.1,0.07703276370155339,0.03222891488420461
26.200000000000003,0.07763533505062682,0.032471823217817074
26.3,0.07776942862602979,0.032525860492775976
26.400000000000002,0.07755609272038805,0.032439886837291446
26.5,0.07822263452283869,0.03270844448871308
26.6,0.07823210931997109,0.03271226080076279
26.700000000000003,0.07806046737835337,0.03264312069512894
26.8,0.07790700641677781,0.03258129485617497
26.900000000000002,0.07796330548021706,0.03260397745675506
27.0,0.07843364014625245,0.03279342657813351
27.1,0.0781807106124499,0.032691557737924974
27.200000000000003,0.07786410104589499,0.03256400770935648
27.3,0.07790264296244256,0.03257953679359244
27.400000000000002,0.0785298356512267,0.03283216360589564
27.5,0.0788733546439241,0.03297046728959222
27.6,0.07827862679848255,0.03273099688576743
27.700000000000003,0.07911153891510188,0.03306633646400339
27.8,0.07921163879635643,0.03310662035341175
27.900000000000002,0.07867911131733081,0.03289226867663163
28.0,0.0788896813673424,0.03297703947177335
28.1,0.07725335971146485,0.03231785722953943
28.200000000000003,0.07868196832684268,0.03289341895553251
28.3,0.07879580878407585,0.03293925051214376
28.400000000000002,0.07881612399600013,0.0329474287987982
28.5,0.07668230806638274,0.032087576829004136
28.6,0.07845077163679014,0.03280032552159735
28.700000000000003,0.0786288617298891,0.032872036870305925
28.8,0.07815960470956394,0.032683056132594715
28.900000000000002,0.06351487508446237,0.02674356863641712
29.0,0.0830633407622625,0.03465385619976523
29.1,0.08123605833861984,0.03392052063412696
29.200000000000003,0.07919036451469853,0.03309805910938343
29.3,0.08070260317166572,0.033706197587708125
29.400000000000002,0.07959160569010669,0.03325949906284221
29.5,0.07825148458873644,0.03272006477602529
29.6,0.08390491691169195,0.03499118637973413
29.700000000000003,0.07886240976302596,0.03296606146617524
29.8,0.07679392925284106,0.03213259842204114
29.900000000000002,0.07988631753668975,0.03337803857476822
30.0,0.0775231628966251,0.03242661471218133
30.1,0.08032583169547643,0.03355476064031267
30.200000000000003,0.07919332880716981,0.03309925201671219
30.3,0.08032940061093835,0.03355619535351288
30.400000000000002,0.07927529882517256,0.033132237556609795
30.5,0.08273879546052385,0.034523698202069714
30.6,0.0803255318458509,0.0335546400997757
30.700000000000003,0.08096762037576544,0.0338126851626146
30.8,0.08007245946822554,0.03345289223843773
30.900000000000002,0.08125347614321392,0.03392751669704581
31.0,0.08210660899301479,0.03427004951047
31.1,0.08041748167729097,0.03359160266698569
31.200000000000003,0.08364940947271056,0.03488879866100607
31.3,0.08212473958071752,0.03427732600999796
31.400000000000002,0.08232246222038453,0.034356671767678926
31.5,0.08430002668237854,0.03514946846055094
31.6,0.08076085778344481,0.033729607334765356
31.700000000000003,0.07897621439442179,0.033011870937673916
31.8,0.08150270882752103,0.034027611548916606
31.900000000000002,0.082047799037511,0.034246445982858725
32.0,0.07953799738346277,0.033237933158015265
32.1,0.08175029396398661,0.03412702188963866
32.2,0.07851713264287133,0.032827048421559375
32.300000000000004,0.08099318942542665,0.03382295777914447
32.4,0.08277009332136437,0.03453625182244947
32.5,0.08250442666705385,0.03442968098211799
32.6,0.0824314070333716,0.034400384941563646
32.7,0.08105558721662022,0.03384802568390101
32.800000000000004,0.07719519400433698,0.032294407102959034
32.9,0.08615932455170545,0.03589353491995924
33.0,0.0784066557405395,0.03278255959041859
33.1,0.08452897292582887,0.035241158575880706
33.2,0.08477034661708027,0.03533780477096799
33.300000000000004,0.08501133836587921,0.03543427658455402
33.4,0.08320922432606843,0.03471234969488504
33.5,0.0845742548790654,0.03525929114068549
33.6,0.0851283930664036,0.03548112721802385
33.7,0.08751333854112404,0.036434592357048684
33.800000000000004,0.07337142134464986,0.03075002795721479
33.9,0.08618785869746227,0.03590494398214258
34.0,0.08693706325765788,0.03620439793061434
34.1,0.09038943491413608,0.03758163484723306
34.2,0.08454666748545621,0.035248244220533055
34.300000000000004,0.08636840972686015,0.03597712836428231
34.4,0.08822751122873745,0.03671970100730788
34.5,0.09008057291838756,0.03745859984942203
34.6,0.09983550255712235,0.04132773454552776
34.7,0.08805100355073928,0.036649253856159164
34.800000000000004,0.08809854245617732,0.036668228548728976
34.9,0.08529227743611811,0.0355467127319657
35.0,0.08754479951625767,0.03644715600089595
35.1,0.08485253022766033,0.03537070623875381
35.2,0.08557085612913881,0.03565817548422146
35.300000000000004,0.08754568542145849,0.0364475097735255
35.4,0.08527544571693589,0.035539977238127886
35.5,0.0751032647866443,0.03145018069174449
35.6,0.14900345714202534,0.06032133540320773
35.7,0.10291504604790554,0.04254206143971365
35.800000000000004,0.10516371449526535,0.0434266174196682
35.9,0.10422382778122607,0.04305711444173056
36.0,0.12474540056052164,0.051054225873817326
36.1,0.05554898103199185,0.02347839083965208
36.2,0.08874603462717576,0.036926586254367254
36.300000000000004,0.07803239532631234,0.03263181177842257
36.4,0.09365513158018172,0.03888039506520186
36.5,0.11217081574223658,0.04617149465348806
36.6,0.0721111823559263,0.030239825823033434
36.7,0.11870110381182822,0.04871406659545032
36.800000000000004,0.08557508370138438,0.035659866767395416
36.9,0.06854260522143348,0.028791843153042243
37.0,0.11736711104077889,0.04819588404247763
37.1,0.12963590122979388,0.05293848634426228
37.2,0.08139163860584939,0.0339830072579345
37.300000000000004,0.08799095592873868,0.03662528524583035
37.4,0.11830585114491687,0.04856059719867168
37.5,0.11630312372214338,0.0477821400179069
37.6,0.11118067169272365,0.04578467850871684
37.7,0.08310712712443953,0.034671413613422714
37.800000000000004,0.08894254644035406,0.037004966604125056
37.9,0.10183046201873111,0.04211477502928371
38.0,0.1190000345969829,0.04883009995576604
38.1,0.08288146302088538,0.0345809194383955
38.2,0.07603260973767155,0.031825433053909384
38.300000000000004,0.09511943072765973,0.039461484726450065
38.400000000000006,0.10267986695628432,0.04244944517411109
38.5,0.10876726904776643,0.044840397028055416
38.6,0.0959591318397146,0.03979435967077846
38.7,0.09900872073101079,0.041001138602134425
38.800000000000004,0.11071745813860784,0.045603598115598165
38.900000000000006,0.10478142571444371,0.04327636399786186
39.0,0.10003263586843376,0.04140557003760627
39.1,0.11419370006338016,0.04696069851810594
39.2,0.07068231934546615,0.029660631036114615
39.300000000000004,0.10392709847589893,0.04294039424913334
39.400000000000006,0.10977582525196007,0.045235260148334365
39.5,0.11005708759051995,0.045345314091179145
39.6,0.11349724952609239,0.0466891486110844
39.7,0.12793736141439407,0.05228498231804376
39.800000000000004,0.1094844318989337,0.0451212126628246
39.900000000000006,0.0881579505453483,0.03669193954547659
40.0,0.11446017090901671,0.04706455207733903
40.1,0.10224427817445626,0.042277853051810144
