Frequency (Hz),Power,Log Power
0.0,0.001375304726080273,0.000596876903675117
0.1,0.001375306911081932,0.0005968778513060312
0.2,0.0013753114071266683,0.0005968798012316615
0.30000000000000004,0.0013753174170972535,0.0005968824077439214
0.4,0.0013753229795999684,0.000596884820190255
0.5,0.0013753361613003678,0.000596890537067506
0.6000000000000001,0.001375345560407666,0.0005968946134415245
0.7000000000000001,0.0013753628366925611,0.0005969021061315987
0.8,0.0013753780503334082,0.0005969087042569775
0.9,0.0013753935453639456,0.0005969154244204432
1.0,0.0013754160267386512,0.000596925174547077
1.1,0.0013754393553899026,0.0005969352921355663
1.2000000000000002,0.001375463489446121,0.0005969457590262511
1.3,0.00137549374819561,0.0005969588821835686
1.4000000000000001,0.0013755249868302227,0.0005969724303146025
1.5,0.0013755529886276179,0.0005969845746357735
1.6,0.001375590778491296,0.0005970009640202663
1.7000000000000002,0.0013756224329187574,0.0005970146924784135
1.8,0.0013756629021543993,0.0005970322438996982
1.9000000000000001,0.0013757029779480983,0.0005970496246853509
2.0,0.0013757450580977346,0.000597067874755055
2.1,0.0013757900635458533,0.0005970873935195091
2.2,0.0013758394134850058,0.0005971087964792986
2.3000000000000003,0.0013758906588678067,0.000597131021487671
2.4000000000000004,0.00137594305718904,0.000597153746521688
2.5,0.0013759955336608727,0.0005971765054482513
2.6,0.0013760542460475808,0.0005972019688754216
2.7,0.0013761123236748583,0.0005972271570075446
2.8000000000000003,0.0013761761737270258,0.0005972548486251955
2.9000000000000004,0.0013762400307148143,0.0005972825432491141
3.0,0.001376303744063808,0.000597310175575336
3.1,0.0013763753778427625,0.0005973412429710446
3.2,0.0013764479484566793,0.0005973727166673778
3.3000000000000003,0.0013765213542490963,0.0005974045525763842
3.4000000000000004,0.0013766005171154535,0.0005974388853112719
3.5,0.001376681840559359,0.0005974741550804247
3.6,0.0013767596663172906,0.0005975079079093837
3.7,0.0013768490747100483,0.0005975466840938407
3.8000000000000003,0.0013769313839021309,0.0005975823813704643
3.9000000000000004,0.0013770223102209111,0.0005976218158686395
4.0,0.0013771143717695334,0.0005976617427092067
4.1000000000000005,0.0013772085686958836,0.0005977025956533926
4.2,0.0013773079995948198,0.0005977457185528188
4.3,0.0013774094987369205,0.0005977897384389234
4.4,0.0013775132500617776,0.0005978347350856595
4.5,0.0013776195610311615,0.0005978808418379059
4.6000000000000005,0.0013777271660336651,0.000597927509803488
4.7,0.0013778384478867953,0.0005979757724029271
4.800000000000001,0.0013779535334023688,0.0005980256846334203
4.9,0.0013780690537251552,0.000598075785432624
5.0,0.0013781913477754204,0.0005981288239698904
5.1000000000000005,0.0013783155785900975,0.0005981827024688929
5.2,0.001378439701070189,0.0005982365339769213
5.300000000000001,0.0013785733137217484,0.0005982944813334197
5.4,0.0013787007997207452,0.00059834977157417
5.5,0.0013788415755588508,0.0005984108255643586
5.6000000000000005,0.0013789828963674615,0.0005984721158977258
5.7,0.0013791203613895708,0.000598531733981833
5.800000000000001,0.001379277735847993,0.0005985999867065956
5.9,0.0013794190852395411,0.0005986612894096655
6.0,0.0013795775874679108,0.0005987300312235379
6.1000000000000005,0.0013797306330605246,0.0005987964065049728
6.2,0.0013798679867724963,0.0005988559762698253
6.300000000000001,0.0013800585454805546,0.0005989386208188101
6.4,0.0013801970136736853,0.0005989986739100678
6.5,0.001380377623212896,0.0005990770035189132
6.6000000000000005,0.0013805523640168299,0.0005991527878682336
6.7,0.0013807510772413487,0.0005992389689390895
6.800000000000001,0.0013809243976958376,0.0005993141372607955
6.9,0.0013811116640779397,0.0005993953538555436
7.0,0.0013812747858569642,0.0005994660990313687
7.1000000000000005,0.0013814741232563354,0.0005995525507417174
7.2,0.0013816990447960867,0.0005996500981551323
7.300000000000001,0.0013818859688499777,0.0005997311662209828
7.4,0.0013820618628189024,0.0005998074505781042
7.5,0.0013822184409959626,0.0005998753577591597
7.6000000000000005,0.001382508445519486,0.0006000011312587575
7.7,0.0013827944394979165,0.0006001251653695352
7.800000000000001,0.0013829635982386035,0.0006001985286246245
7.9,0.001383160502676756,0.0006002839250271212
8.0,0.0013834405130783243,0.0006004053640127716
8.1,0.0013837381275162962,0.0006005344377358974
8.200000000000001,0.0013839766896080444,0.0006006379007578172
8.3,0.0013841188813792683,0.000600699568508328
8.4,0.0013845275886079538,0.0006008768224257618
8.5,0.001384553932345028,0.0006008882475468147
8.6,0.0013849236939184617,0.0006010486108964867
8.700000000000001,0.0013854069768757047,0.0006012582076917851
8.8,0.0013858116068329153,0.0006014336930951591
8.9,0.0013855493945103504,0.0006013199733096902
9.0,0.0013861432942084975,0.0006015775437184605
9.1,0.001386276757630959,0.0006016354259094338
9.200000000000001,0.0013863266469633542,0.0006016570625762715
9.3,0.0013868716256149496,0.0006018934160698404
9.4,0.0013871882159182398,0.0006020307190482512
9.5,0.0013874994779185536,0.0006021657111370058
9.600000000000001,0.001387483258515824,0.0006021586768998526
9.700000000000001,0.0013883866896095725,0.0006025504882299836
9.8,0.0013887018604495282,0.0006026871753904221
9.9,0.0013888459090351383,0.0006027496481358117
10.0,0.001388535021889574,0.0006026148188002033
10.100000000000001,0.0013893938884907734,0.0006029873024592209
10.200000000000001,0.0013899173557001003,0.0006032143258953076
10.3,0.0013900723059330944,0.0006032815265178933
10.4,0.0013906398350136062,0.0006035276590540601
10.5,0.0013925820228349321,0.0006043699683408337
10.600000000000001,0.0013911670178913464,0.000603756293660184
10.700000000000001,0.0013915586351045312,0.0006039261345445597
10.8,0.0013924621388552428,0.0006043179757907847
10.9,0.0013920177474182763,0.0006041252473661093
11.0,0.0013919776401216024,0.0006041078532011515
11.100000000000001,0.0013951288097601184,0.0006054744843135264
11.200000000000001,0.0013926028093576692,0.0006043789832588448
11.3,0.0013935504053779048,0.0006047899464782947
11.4,0.0013968036875663505,0.0006062008605059832
11.5,0.0013927525160145123,0.0006044439096123363
11.600000000000001,0.0013967838994550202,0.0006061922786255245
11.700000000000001,0.0013949533028141318,0.000605398368799572
11.8,0.0014000489017378032,0.0006076082709534354
11.9,0.0014001092281122334,0.0006076344337349619
12.0,0.0014024206382599535,0.000608636861740323
12.100000000000001,0.001391194486004989,0.0006037682063376444
12.200000000000001,0.0013932562995384024,0.0006046623956648527
12.3,0.0013972186444527264,0.0006063808225828505
12.4,0.0013984306311121807,0.0006069064469704827
12.5,0.0013988320511461672,0.0006070805379870665
12.600000000000001,0.0014027635255445619,0.0006087855672227925
12.700000000000001,0.001398053319864692,0.0006067428115796676
12.8,0.001401615059172008,0.0006082874930089168
12.9,0.0014088437332116118,0.0006114224609067477
13.0,0.0013973326717593105,0.000606430274914401
13.100000000000001,0.0013977459325274595,0.0006066095013096211
13.200000000000001,0.001403462751049889,0.0006090888115153844
13.3,0.0014015735214100388,0.0006082694786369753
13.4,0.0014018621430705919,0.0006083946499766202
13.5,0.0014048680961029718,0.0006096982893094259
13.600000000000001,0.0014016798815506245,0.0006083156056062852
13.700000000000001,0.0014079031162762764,0.0006110145306802827
13.8,0.001401670641524102,0.0006083115983306533
13.9,0.0014129269854444367,0.0006131932963738306
14.0,0.0014163661375468561,0.0006146847912162955
14.100000000000001,0.0014103046194920974,0.0006120560227046603
14.200000000000001,0.0014048979976921912,0.0006097112571862673
14.3,0.0014001373793793986,0.0006076466425811264
14.4,0.0014102207029043055,0.0006120196295176442
14.5,0.0014098865432223217,0.0006118747101557807
14.600000000000001,0.0014072707058986793,0.0006107402643966144
14.700000000000001,0.0014198984121130797,0.000616216666167645
14.8,0.001412541421707577,0.0006130260843966325
14.9,0.0014126524233357605,0.0006130742237896451
15.0,0.0014241648885639497,0.0006180669421964213
15.100000000000001,0.0014045095444618126,0.0006095427907373488
15.200000000000001,0.0013914276523076354,0.0006038693284839157
15.3,0.0014130221879918854,0.0006132345839764967
15.4,0.001418306593693784,0.0006155263278727531
15.5,0.0013997123489764222,0.0006074623122710054
15.600000000000001,0.0014317534441283526,0.0006213579106351132
15.700000000000001,0.001390854012684723,0.0006036205460524819
15.8,0.0014303570692963618,0.0006207523393568742
15.9,0.001403794905933796,0.0006092328623546537
16.0,0.0014169016383939728,0.0006149170272858119
16.1,0.001433673913055537,0.0006221907664489545
16.2,0.0014353551065251521,0.0006229198536096808
16.3,0.0014184384381615736,0.0006155835060975603
16.400000000000002,0.0014218088324001524,0.0006170451739681293
16.5,0.0014441746272808996,0.000626744616048358
16.6,0.0014428072286552874,0.0006261516183574577
16.7,0.001432104439837242,0.0006215101281699847
16.8,0.0014451602192498071,0.0006271720357225918
16.900000000000002,0.0014432494558479386,0.0006263433984428714
17.0,0.001449288353124591,0.0006289622706135383
17.1,0.0014404303575500342,0.000625120842338324
17.2,0.0014290922288702401,0.0006202038103846909
17.3,0.001407558763511496,0.0006108651904055537
17.400000000000002,0.0014651869042141673,0.0006358568765429724
17.5,0.0014746826926418154,0.000639974791991204
17.6,0.0014159459286988531,0.0006145025549074366
17.7,0.0014658692109226637,0.0006361527649486644
17.8,0.001420795569010587,0.0006166057438324105
17.900000000000002,0.0014529641925448364,0.0006305563541736483
18.0,0.0013837215523714614,0.0006005272491889757
18.1,0.001693817441870586,0.000734993271721277
18.2,0.0014425089381737042,0.0006260222590685937
18.3,0.00134172181278894,0.000582311816609125
18.400000000000002,0.0014195072145948722,0.0006160470121025287
18.5,0.001517170144223364,0.0006583992960636213
18.6,0.0016140395428756993,0.0007004033795997533
18.7,0.0012922002468863283,0.000560833160351275
18.8,0.0015446053571362254,0.0006702960450549406
18.900000000000002,0.001617831688470523,0.0007020476305025869
19.0,0.0014414449695423113,0.0006255608487061585
19.1,0.0015192820072805755,0.0006593150761746101
19.200000000000003,0.0016919968885123178,0.000734203951689299
19.3,0.0016038150207470193,0.0006959700589496517
19.400000000000002,0.00134629671120492,0.000584296002981646
19.5,0.0017841696431613043,0.0007741646154823989
19.6,0.002022362582823972,0.0008774139842686386
19.700000000000003,0.00243678766193367,0.0010569961199905526
19.8,0.0019103758503465124,0.0008288742113718706
19.900000000000002,0.003870461950475535,0.0016776756679108432
20.0,0.003329856524267776,0.001443735929056701
20.1,0.0007574196388084035,0.00032881865847880814
20.200000000000003,0.001388836794241369,0.000602745695121267
20.3,0.0017643280267938518,0.0007655627727910543
20.400000000000002,0.0012531835111325496,0.0005439099453476826
20.5,0.0012133619728507572,0.0005266369732943472
20.6,0.0014021157468253806,0.0006085046344907873
20.700000000000003,0.0016597947207744204,0.0007202421264984573
20.8,0.0015678204802642383,0.0006803625792560532
20.900000000000002,0.0014508764422341612,0.0006296509702793239
21.0,0.001468432422797002,0.0006372643228984712
21.1,0.001503051261606799,0.0006522767889160636
21.200000000000003,0.0015544172013069303,0.0006745506822273185
21.3,0.0021294570099359526,0.0009238281514259409
21.400000000000002,0.0011501902451318592,0.0004992342244385686
21.5,0.001542249294404693,0.0006692743968513523
21.6,0.00198024056419098,0.0008591571614152788
21.700000000000003,0.002590709463113858,0.0011236758928359642
21.8,0.002511527825666862,0.0010893752496172122
21.900000000000002,0.0027412788369691444,0.0011888934714846635
22.0,0.003190041335811906,0.0013832122681692919
22.1,0.0008882436578494863,0.00038558809643939377
22.200000000000003,0.0008696372464034932,0.00037751453080356307
22.3,0.002248222067418854,0.0009752945089957256
22.400000000000002,0.0030477385236277275,0.0013216030942070373
22.5,0.0014182233425285972,0.0006154902235566367
22.6,0.001009818662566675,0.00043833738946758786
22.700000000000003,0.0032960558655590164,0.0014291049612488059
22.8,0.0038437893844505753,0.0016661364279658985
22.900000000000002,0.0038232694239573057,0.0016572587551741905
23.0,0.0005636504744172399,0.00024472132859231687
23.1,0.0004538683107682572,0.00019706778484824823
23.200000000000003,0.0018904350590566205,0.0008202304623773992
23.3,0.0007860642770091125,0.00034124927355903595
23.400000000000002,0.0013262095531115985,0.000575583902635682
23.5,0.0014959172244062794,0.0006491831547818013
23.6,0.0006470089872335476,0.00028090156977331735
23.700000000000003,0.0020630654187782445,0.0008950549658438116
23.8,0.0016150153002008755,0.0007008264625427345
23.900000000000002,0.0004737228072896999,0.00020568648581356755
24.0,0.0031294756675423374,0.0013569917830398776
24.1,0.0006359739516813632,0.00027611218707357556
24.200000000000003,0.0021876273795195756,0.0009490368080045953
24.3,0.0009216406968180807,0.00040007913262684545
24.400000000000002,0.0005861333665670432,0.0002544799144584371
24.5,0.0010808063264833526,0.00046913474733973595
24.6,0.0012688945640529437,0.000550724575421501
24.700000000000003,0.0006432038753580129,0.00027925009605913367
24.8,0.007713220269549671,0.0033369561424053716
24.900000000000002,0.0055011556669216305,0.0023825740868915466
25.0,0.0026893515939471553,0.001166402825567808
25.1,0.0032865254860394767,0.001424979547947318
25.200000000000003,0.0019171235651948037,0.0008317991091736988
25.3,0.001702570838387616,0.0007387883786980982
25.400000000000002,0.001905326374096866,0.0008266854275737779
25.5,0.0028268527353923108,0.0012259545628708003
25.6,0.0019556260118773323,0.0008484881929885821
25.700000000000003,0.000588071081877535,0.0002553209597456975
25.8,0.002804359693873185,0.001216213386374491
25.900000000000002,0.0026978529598009103,0.0011700850035238197
26.0,0.007650594057447311,0.0033099652654690246
26.1,0.0038815809431016132,0.0016824859403336897
26.200000000000003,0.0034650463746532193,0.0015022493387087904
26.3,0.004149871705043423,0.001798537108752001
26.400000000000002,0.0027901115725366657,0.0012100427665780106
26.5,0.0031319344350670135,0.0013580562795834294
26.6,0.00619698573917706,0.002683011977203799
26.700000000000003,0.004471360556797513,0.001937558675645613
26.8,0.0032878078024037266,0.0014255346262335188
26.900000000000002,0.002123038754913249,0.0009210466528415614
27.0,0.00256922529884329,0.001114369449165631
27.1,0.0011462442167773708,0.0004975224515858504
27.200000000000003,0.002967762165764213,0.0012869739590788676
27.3,0.0025312141712409216,0.001097903418192263
27.400000000000002,0.004227546446714364,0.0018321301091540666
27.5,0.0004715039553910836,0.00020472330588953885
27.6,0.003196918224528069,0.0013861893557225312
27.700000000000003,0.002358892865923066,0.0010232477630662629
27.8,0.001672517980757972,0.0007257585768324641
27.900000000000002,0.004502235246278235,0.0019509074894887258
28.0,0.0030168323212523915,0.0013082212785423476
28.1,0.002844663874682585,0.0012336679690256429
28.200000000000003,0.00370743094759736,0.0016071394607377516
28.3,0.0018424723225100017,0.0007994393162655467
28.400000000000002,0.002676646300222671,0.0011608997513544756
28.5,0.0032437200855953588,0.0014064499003106292
28.6,0.0033457873223672516,0.0014506315703410595
28.700000000000003,0.0010120802567636816,0.0004393185953980569
28.8,0.0014354388776597342,0.0006229561828044051
28.900000000000002,0.01885393380512915,0.00811192660761944
29.0,0.009041872906616951,0.0039091888285442255
29.1,0.005155600283667378,0.0022332966956385494
29.200000000000003,0.0030641210407654647,0.00132869625479901
29.3,0.005635608443752571,0.0024406428370464727
29.400000000000002,0.006334170684038196,0.00274221967141074
29.5,0.008638136501460569,0.0037353847620664195
29.6,0.002154360537881007,0.0009346204999669697
29.700000000000003,0.0021865298982046326,0.000948561218078095
29.8,0.0032908067125889283,0.001426832766396855
29.900000000000002,0.002840807490599451,0.0012319979102339363
30.0,0.004969946638070403,0.0021530744884428175
30.1,0.004430334984899383,0.0019198204463093608
30.200000000000003,0.005761800429780682,0.0024951367754621396
30.3,0.0016995251478664607,0.0007374678983117011
30.400000000000002,0.003347019338440883,0.0014511648435761124
30.5,0.004177806830429074,0.0018106188730344687
30.6,0.005995770527262128,0.0025961548346872605
30.700000000000003,0.0023305651103403117,0.001010973953887301
30.8,0.0028854849217535097,0.0012513456765691569
30.900000000000002,0.004840950238130141,0.0020973255372918075
31.0,0.003070223072241482,0.0013313382300049659
31.1,0.004395319445027484,0.0019046802018434373
31.200000000000003,0.0020661305158310604,0.0008963833779434359
31.3,0.003734151534364877,0.0016187010458801237
31.400000000000002,0.0040165857497661585,0.0017408871517355443
31.5,0.0025789158260134813,0.0011185671863706721
31.6,0.004881956338329153,0.0021150481029101626
31.700000000000003,0.0037826540036646466,0.0016396865287628193
31.8,0.005384319129978839,0.002332107301018438
31.900000000000002,0.002534880797249543,0.0010994917902132472
32.0,0.005860229812491157,0.0025376371429862974
32.1,0.0018554459854642172,0.0008050633079658513
32.2,0.005989310035735308,0.002593365792315512
32.300000000000004,0.007713914033205091,0.0033372551338421374
32.4,0.0038583584588872833,0.0016724394232994206
32.5,0.0032740418239281086,0.0014195756885699235
32.6,0.0016613135847451256,0.0007209006671972529
32.7,0.009184639302656233,0.003970631543452044
32.800000000000004,0.0006750964495467214,0.00029309174132141424
32.9,0.0023320000873462096,0.0010115957070004028
33.0,0.006728551188442546,0.0029123855357559097
33.1,0.0014967403187938345,0.000649540086045874
33.2,0.006611302864245408,0.002861802619845035
33.300000000000004,0.0017632188673238306,0.0007650819190706858
33.4,0.013091143153789911,0.005648518596363281
33.5,0.009938373128276534,0.004294873756017178
33.6,0.004540302902059651,0.0019673656505608873
33.7,0.010320380698566969,0.004459113887619565
33.800000000000004,0.00481811379691877,0.0020874554647184822
33.9,0.007322958232347712,0.0031687322135444456
34.0,0.009639867656333716,0.004166491227815239
34.1,0.005653957486629198,0.0024485669949646104
34.2,0.00851106373636366,0.0036806669447148463
34.300000000000004,0.0015907425760048417,0.0006903018220876887
34.4,0.00448150981927443,0.0019419468011753166
34.5,0.013239296993707657,0.0057120249169405075
34.6,0.004776292875057068,0.0020693795828042026
34.7,0.0061899993616518515,0.002679996508280428
34.800000000000004,0.009889494776341075,0.004273854540596353
34.9,0.00808165567339499,0.003495711843711302
35.0,0.0038409436012642284,0.0016649052506658374
35.1,0.0028084818142156773,0.001217998590459241
35.2,0.00832549119607754,0.0036007466058362294
35.300000000000004,0.006161647681900407,0.002667759106246195
35.4,0.009658456944985053,0.004174487297921104
35.5,0.013250293914719652,0.005716738390066571
35.6,0.012677848963588813,0.005471310445388722
35.7,0.003556408646616279,0.0015417886575295088
35.800000000000004,0.007658516424631268,0.003313379769312303
35.9,0.021166998239754275,0.00909677096382089
36.0,0.010252043791177634,0.004429737715361541
36.1,0.012691985947827318,0.0054773731546676275
36.2,0.00772574478746312,0.0033423538042673126
36.300000000000004,0.017759002533506683,0.00764495259733077
36.4,0.005892031114106241,0.002551367590892944
36.5,0.002629142775077981,0.0011403238182897991
36.6,0.016185661923515195,0.0069730628519501375
36.7,0.012575983391123724,0.005427622434189249
36.800000000000004,0.005268300976800036,0.0022819882070702503
36.9,0.019737842396990845,0.008488536238335839
37.0,0.014149334936138722,0.00610191018811154
37.1,0.01372272906590222,0.005919184086782706
37.2,0.005704485723550016,0.002470387207621064
37.300000000000004,0.012430349967016939,0.0053651556739254345
37.4,0.019885373074842158,0.008551363292791683
37.5,0.009292234813184842,0.004016931936727373
37.6,0.010901520256301327,0.00470884966376091
