Frequency (Hz),Power,Log Power
0.0,0.005284347011874538,0.002288920335404685
0.1,0.005284355569347251,0.0022889240323319122
0.2,0.00528438204571182,0.002288935470427866
0.30000000000000004,0.0052844282416116654,0.002288955427590491
0.4,0.0052844921366156615,0.0022889830309692693
0.5,0.005284574476282321,0.0022890186026523892
0.6000000000000001,0.005284675690404294,0.0022890623283133276
0.7000000000000001,0.005284794647616704,0.0022891137191870556
0.8,0.005284930653275934,0.0022891724751770083
0.9,0.005285086273694594,0.002289239704956201
1.0,0.005285261252429329,0.002289315297734127
1.1,0.005285453872923006,0.002289398511934871
1.2000000000000002,0.005285664828155134,0.002289489646928713
1.3,0.005285894633655557,0.002289588925425186
1.4000000000000001,0.005286142164162637,0.002289695861293503
1.5,0.005286408019644212,0.0022898107137206336
1.6,0.0052866942244718974,0.0022899343572501214
1.7000000000000002,0.0052869988472755425,0.0022900659575024697
1.8,0.005287321234632701,0.0022902052321852233
1.9000000000000001,0.00528766224657929,0.0022903525528352097
2.0,0.005288022830915959,0.0022905083289035404
2.1,0.005288401291583465,0.0022906718276669083
2.2,0.005288799665461577,0.0022908439290683508
2.3000000000000003,0.005289217806982088,0.0022910245702107866
2.4000000000000004,0.005289654415775867,0.002291213189311993
2.5,0.0052901087551411536,0.002291409468099684
2.6,0.005290583648026726,0.0022916146261025695
2.7,0.005291077892171714,0.0022918281439207894
2.8000000000000003,0.005291591429140973,0.0022920499962975826
2.9000000000000004,0.005292124963926125,0.0022922804877824627
3.0,0.005292678407032944,0.0022925195796992762
3.1,0.005293250174433081,0.002292766587721524
3.2,0.005293841604728937,0.0022930220901217608
3.3000000000000003,0.005294454347555153,0.002293286799539107
3.4000000000000004,0.0052950867389424715,0.002293559997110638
3.5,0.005295739146174876,0.0022938418414892785
3.6,0.005296411791871346,0.0022941324288309455
3.7,0.005297104681354149,0.0022944317614175943
3.8000000000000003,0.005297817057079018,0.002294739511967445
3.9000000000000004,0.0052985506400955945,0.002295056423965523
4.0,0.005299305989864588,0.0022953827390816786
4.1000000000000005,0.005300081574966599,0.002295717795714233
4.2,0.005300876893564069,0.002296061377046731
4.3,0.005301694440678772,0.002296414560918731
4.4,0.005302532512496211,0.0022967766112525555
4.5,0.005303391543419928,0.0022971477156897755
4.6000000000000005,0.005304273092650095,0.0022975285477863346
4.7,0.005305178015958407,0.0022979194772123532
4.800000000000001,0.005306102676511127,0.0022983189328202747
4.9,0.005307049224383293,0.002298727843422808
5.0,0.005308016417000889,0.002299145672199698
5.1000000000000005,0.005309008460218235,0.0022995742360582294
5.2,0.005310020723827537,0.002300011534714322
5.300000000000001,0.005311059127802171,0.002300460125570913
5.4,0.005312116384244165,0.0023009168602234203
5.5,0.005313195298445096,0.002301382950529916
5.6000000000000005,0.0053143043402107204,0.002301862055405442
5.7,0.005315431637370175,0.0023023490460503406
5.800000000000001,0.005316581740375051,0.0023028458882226486
5.9,0.0053177551316336774,0.0023033527902877123
6.0,0.0053189488640350375,0.0023038684790680423
6.1000000000000005,0.005320175150054821,0.002304398230275299
6.2,0.005321421179943079,0.0023049365101016996
6.300000000000001,0.005322693777201857,0.002305486266235186
6.4,0.005324001974528547,0.002306051400708012
6.5,0.0053253018049929214,0.0023066129200112803
6.6000000000000005,0.005326654879722194,0.0023071974397602286
6.7,0.005328012901770686,0.0023077840959289456
6.800000000000001,0.00532943517186659,0.0023083985059618685
6.9,0.0053308298123027655,0.0023090009793445207
7.0,0.005332291484960768,0.0023096324092076377
7.1000000000000005,0.005333761063159965,0.0023102672532701804
7.2,0.005335261676087227,0.0023109155030880315
7.300000000000001,0.005336802925418449,0.00231158130641966
7.4,0.005338337531134137,0.00231224423876599
7.5,0.005339975631094638,0.002312951878341079
7.6000000000000005,0.005341516439533044,0.002313617488090911
7.7,0.005343163184284672,0.0023143288598599424
7.800000000000001,0.005344831848912059,0.0023150496995343237
7.9,0.005346484133938102,0.0023157634622722207
8.0,0.005348266849857564,0.0023165335679147477
8.1,0.005349964569037119,0.002317266955013853
8.200000000000001,0.005351714283736241,0.00231802280203654
8.3,0.005353480444781924,0.0023187857522674175
8.4,0.005355321891384665,0.002319581223095782
8.5,0.0053572292583454785,0.0023204051687617843
8.6,0.00535900887665597,0.002321173928070018
8.700000000000001,0.005360967107994448,0.0023220198430404988
8.8,0.005363499050836759,0.002323113586935699
8.9,0.0053651724100408065,0.002323836439977876
9.0,0.005366928713033785,0.002324595121552613
9.1,0.005369060550883135,0.0023255160235698185
9.200000000000001,0.005371557249195569,0.0023265945339360165
9.3,0.005373349329979584,0.002327368665744743
9.4,0.005375466544886494,0.002328283245172801
9.5,0.005377911597479616,0.002329339439195169
9.600000000000001,0.00537940497004929,0.0023299845329228523
9.700000000000001,0.0053819968185990375,0.002331104134206325
9.8,0.005383789388500122,0.002331878469259918
9.9,0.005386253141617226,0.0023329427325630148
10.0,0.00538853542874508,0.0023339286059798955
10.100000000000001,0.005391222718260219,0.002335089424317132
10.200000000000001,0.005394543038392025,0.002336523686222025
10.3,0.005396268759570337,0.0023372691354061836
10.4,0.005399106973382604,0.002338495138421681
10.5,0.005401342290467358,0.0023394607099935126
10.600000000000001,0.00540383464835844,0.0023405373108412553
10.700000000000001,0.0054054905489909705,0.0023412525934871195
10.8,0.005409662318318557,0.002343054625261389
10.9,0.0054132002608133275,0.002344582864204117
11.0,0.00541411011613095,0.002344975881686718
11.100000000000001,0.005419157569934561,0.0023471561532883373
11.200000000000001,0.005419278778881512,0.00234720850993314
11.3,0.005421218087139418,0.0023480462003181973
11.4,0.005421939542279364,0.002348357834753818
11.5,0.005428127785165884,0.0023510308532766673
11.600000000000001,0.00543265960054566,0.0023529883656263294
11.700000000000001,0.005436901506597454,0.002354820643986558
11.8,0.005444718576460895,0.00235819718318463
11.9,0.00543632333832003,0.0023545709064204893
12.0,0.005438001696342349,0.002355295866323438
12.100000000000001,0.005447683154838203,0.0023594777092130668
12.200000000000001,0.005448269719208435,0.002359731070575587
12.3,0.005452764611837482,0.0023616725953271235
12.4,0.005451728191698336,0.002361224924590963
12.5,0.005457597045419387,0.0023637599078984136
12.600000000000001,0.005463139124802345,0.0023661537312361586
12.700000000000001,0.005465697868671787,0.0023672589402546624
12.8,0.005469161435893929,0.0023687549689552618
12.9,0.005470380377341908,0.002369281468667085
13.0,0.005474101950418653,0.0023708889308973638
13.100000000000001,0.005479745523744646,0.0023733265529808163
13.200000000000001,0.005480112596252105,0.002373485101709401
13.3,0.005485947165688247,0.002376005205217021
13.4,0.005490805753388348,0.002378103745466146
13.5,0.005492027931182332,0.0023786316316945976
13.600000000000001,0.005500100954110845,0.002382118536749897
13.700000000000001,0.0055010397873910535,0.0023825240363836565
13.8,0.005507892696034231,0.0023854839241898
13.9,0.005509350965969174,0.0023861137731758337
14.0,0.005513241647526613,0.0023877942133035757
14.100000000000001,0.005515457624294358,0.0023887513219541454
14.200000000000001,0.0055209997712478845,0.002391145036728429
14.3,0.005526240372680659,0.002393408498509535
14.4,0.005528471211570204,0.002394372013837283
14.5,0.005536425271887958,0.002397807412178503
14.600000000000001,0.005538929303640779,0.0023988889103633364
14.700000000000001,0.005539236469297265,0.002399021575867745
14.8,0.005547460829991619,0.002402573679784109
14.9,0.005553430252194156,0.002405151856875293
15.0,0.005553208688678734,0.002405056164473583
15.100000000000001,0.005557835733060162,0.0024070545621731536
15.200000000000001,0.005564435663127398,0.0024099050235796785
15.3,0.005576463961559197,0.0024150999093647757
15.4,0.0055693842361957775,0.0024120422637330264
15.5,0.005575704260755262,0.0024147718050350226
15.600000000000001,0.00558302565195964,0.002417933802894914
15.700000000000001,0.005574265118005435,0.0024141502583931956
15.8,0.005601368778128659,0.0024258558198898563
15.9,0.005605303552286471,0.0024275551486836536
16.0,0.005606845715730204,0.0024282211680033937
16.1,0.005614418522106297,0.0024314916465730074
16.2,0.005605333530739504,0.002427568095588863
16.3,0.0056271680167072746,0.0024369977331509516
16.400000000000002,0.005621030485630509,0.0024343471444457747
16.5,0.005635812132141552,0.0024407308020446172
16.6,0.005646249146074422,0.0024452381137199963
16.7,0.005638481956082683,0.002441883792274398
16.8,0.0056430390084995724,0.002443851793966663
16.900000000000002,0.005659579982751496,0.00245099507889576
17.0,0.005676016764854516,0.002458093251651473
17.1,0.005619588561751414,0.002433724424739217
17.2,0.005666894606968519,0.0024541538907294253
17.3,0.005667912989247466,0.002454593676092405
17.400000000000002,0.005690590972623816,0.0024643869804905345
17.5,0.005650062140476835,0.0024468847755462204
17.6,0.00573638221210774,0.0024841608851819547
17.7,0.005687106398802931,0.002462882209721481
17.8,0.005717854847351962,0.002476160372786896
17.900000000000002,0.005815560070331128,0.002518349917252478
18.0,0.005794466891254912,0.002509242136762043
18.1,0.005937259152184693,0.002570894384208006
18.2,0.005383088286070144,0.002331575614742141
18.3,0.005643875061470674,0.0024442128495568696
18.400000000000002,0.00559034535255903,0.0024210950475945067
18.5,0.005650014380949392,0.0024468641503799715
18.6,0.005725015491776154,0.0024792525096863508
18.7,0.0057712212564376515,0.0024992047305869365
18.8,0.005804992791075487,0.0025137871173119353
18.900000000000002,0.005762101390641599,0.002495266732298482
19.0,0.005772141152903395,0.0024996019439570524
19.1,0.005872418071033276,0.002542899565340908
19.200000000000003,0.00578373336464704,0.002504607456015796
19.3,0.005628040545969785,0.0024373745472344565
19.400000000000002,0.00571331060237719,0.002474198048099025
19.5,0.005604881953640996,0.0024273730712790543
19.6,0.005810706941557822,0.0025162544116600367
19.700000000000003,0.006072750543773067,0.002629386303748738
19.8,0.00563565062107998,0.0024406610517755624
19.900000000000002,0.0038349152644632737,0.001662297186823052
20.0,0.006305243422148763,0.002729735616762847
20.1,0.004589859289780563,0.0019887899128009823
20.200000000000003,0.005855119448543904,0.002535430664953836
20.3,0.005792306998011652,0.0025083095101121017
20.400000000000002,0.005036308403926539,0.002181751562117409
20.5,0.004789361471735084,0.002075028185935278
20.6,0.00740763936577814,0.0032052398727179265
20.700000000000003,0.00426264322012242,0.0018473080125401544
20.8,0.005596597452484617,0.0024237951968846534
20.900000000000002,0.004885109428222133,0.002116410817589673
21.0,0.005919675232598448,0.0025633027914697924
21.1,0.006347319642486845,0.0027478942107002293
21.200000000000003,0.005991490865574269,0.0025943072748232945
21.3,0.005702670122752823,0.002469603174010268
21.400000000000002,0.005106722905265601,0.002212177883940094
21.5,0.0064174030042344595,0.0027781380011940833
21.6,0.005615102381149726,0.0024317869845300716
21.700000000000003,0.006562345878495362,0.002840680002052653
21.8,0.005821432903895068,0.002520885702007734
21.900000000000002,0.007237937200660483,0.003132074930050967
22.0,0.0066666950369468694,0.002885700476947799
22.1,0.006217155082769086,0.0026917173768014275
22.200000000000003,0.005777668594910113,0.0025019886982405974
22.3,0.0066914172980860045,0.0028963659830270813
22.400000000000002,0.005477949388136213,0.0023725507516942144
22.5,0.00568362188071724,0.002461377457807371
22.6,0.007507696991926385,0.003248372677516375
22.700000000000003,0.005534045391480072,0.002396779532804012
22.8,0.005595769285078256,0.0024234375299199643
22.900000000000002,0.005754874594905135,0.00249214614465474
23.0,0.007413132859781382,0.003207608117243568
23.1,0.00638493176005472,0.0027641256146566317
23.200000000000003,0.0061837575827523635,0.002677302406229082
23.3,0.006708964848239885,0.0029039360662261246
23.400000000000002,0.007317103488881025,0.003166208008026182
23.5,0.0064268364311116325,0.0027822087436369164
23.6,0.006602310088232617,0.002857922740457946
23.700000000000003,0.005526878205245521,0.0023936839831904646
23.8,0.006215974525930817,0.002691207835080213
23.900000000000002,0.00648827570621025,0.00280872028204701
24.0,0.007359772467300793,0.0031846039126995577
24.1,0.005567510062170613,0.002411232827598143
24.200000000000003,0.005793715180288971,0.002508917553502513
24.3,0.006097100936379338,0.0026398975845273714
24.400000000000002,0.006877343376653593,0.0029765685286468257
24.5,0.007388493469120896,0.0031969859783074197
24.6,0.006969081444728212,0.00301613593188256
24.700000000000003,0.008886341518419306,0.003842242518652862
24.8,0.013761328337247419,0.005935720296270047
24.900000000000002,0.0025473889637419975,0.0011049102488653896
25.0,0.006131614261313779,0.002654795440282454
25.1,0.005405235545657584,0.0023411424423534517
25.200000000000003,0.005971106377870239,0.002585507041122413
25.3,0.005573052107691294,0.0024136263746563514
25.400000000000002,0.006515867507177846,0.002820625838175283
25.5,0.006648391356076564,0.0028778038614061647
25.6,0.006259554333245805,0.0027100169779202556
25.700000000000003,0.006750928894789651,0.002922038988379301
25.8,0.005731896757188355,0.0024822239833270916
25.900000000000002,0.006244726870844331,0.002703617503234081
26.0,0.007387108920372727,0.0031963890861468128
26.1,0.006829595203532208,0.0029559729119618306
26.200000000000003,0.007545074870706328,0.003264484420819561
26.3,0.007227316612573564,0.0031274955879232666
26.400000000000002,0.006449147892483664,0.0027918365047439214
26.5,0.0070456257916714764,0.0030491473963916433
26.6,0.006637593629495764,0.002873145414363684
26.700000000000003,0.0074208265170827665,0.0032109248301629106
26.8,0.011518048881512019,0.004973636449099274
26.900000000000002,0.0038099263145745807,0.0016514859488779665
27.0,0.005457071392623083,0.0023635328588720566
27.1,0.006116269423186151,0.0026481718243963315
27.200000000000003,0.0061897306110098435,0.0026798805093771654
27.3,0.007128367416384745,0.003084828753789763
27.400000000000002,0.005898305169294482,0.002554076409499226
27.5,0.006579123157727106,0.0028479187181626718
27.6,0.007219373479500285,0.0031240706684357114
27.700000000000003,0.005731988814419745,0.0024822637354179945
27.8,0.0066239027070904705,0.0028672386883236626
27.900000000000002,0.007199539054621276,0.0031155183447622806
28.0,0.007663253069268534,0.0033154212285570785
28.1,0.005458559475074726,0.0023641756168151316
28.200000000000003,0.006640990106437363,0.0028746107567216785
28.3,0.005027724346995103,0.002178042219034925
28.400000000000002,0.005807627684258202,0.0025149248309631884
28.5,0.005537064112618076,0.0023980833294986403
28.6,0.004646116485461437,0.002013109793544193
28.700000000000003,0.005641191150590361,0.002443053781948928
28.8,0.004256760790243086,0.001844764141834477
28.900000000000002,0.005014234669309768,0.002172212994868533
29.0,0.009129315202005665,0.003946822609682206
29.1,0.0058530615283568285,0.002534542123176328
29.200000000000003,0.005256671417925512,0.00227696399367763
29.3,0.010481143184304728,0.004528213460017078
29.400000000000002,0.01183753888549951,0.005110787573446371
29.5,0.00931033053640959,0.004024718385508992
29.6,0.011608143771183119,0.005012316896814036
29.700000000000003,0.009119583486756885,0.003942634394606389
29.8,0.006786720524487762,0.0029374785877157154
29.900000000000002,0.009030450794006337,0.003904272691079605
30.0,0.008273085749698627,0.003578174541718633
30.1,0.007552444599530981,0.0032676610735926483
30.200000000000003,0.006465592073675927,0.00279893230170898
30.3,0.00626099741951547,0.0027106398032656614
30.400000000000002,0.0071167425822681795,0.003079815857112193
30.5,0.007852747297437294,0.0033970839867526474
30.6,0.007885142075364907,0.003411043017211787
30.700000000000003,0.0054471048399633935,0.002359227911003373
30.8,0.005099790151320301,0.0022091823143174497
30.900000000000002,0.009217488644582666,0.003984767763124531
31.0,0.005747981392329919,0.0024891695842863115
31.1,0.0076964147491387315,0.0033297134016212738
31.200000000000003,0.009070645892240709,0.003921572626542379
31.3,0.009638807018146409,0.004166034996272949
31.400000000000002,0.0068300782236475135,0.0029561812619362227
31.5,0.00720886092995773,0.003119537826630614
31.6,0.008447708808720894,0.0036533835952877692
31.700000000000003,0.007658705494203449,0.003313461257100943
31.8,0.005275056265497579,0.0022849066068097498
31.900000000000002,0.006263908642725263,0.0027118962629216047
32.0,0.007277370448335829,0.0031490771755102315
32.1,0.0059474792288347796,0.002575306687566267
32.2,0.004965641989969928,0.0021512142448338913
32.300000000000004,0.004672269468085053,0.002024415215441247
32.4,0.007352566761223733,0.0031814973665921973
32.5,0.004105914644945774,0.0017795252789105077
32.6,0.00980405990028079,0.0042371124366556495
32.7,0.0075311026527152955,0.003258461762975415
32.800000000000004,0.008526644808488916,0.003687376560125179
32.9,0.006432859091817783,0.002784807641430819
33.0,0.01066420496893735,0.004606884420720947
33.1,0.008475850418233379,0.003665502791048091
33.2,0.005472338047104273,0.0023701270473773742
33.300000000000004,0.007881738660285019,0.003409576494070654
33.4,0.004969322344317398,0.002152804701851589
33.5,0.011881758124485125,0.00512976665964367
33.6,0.010835849368676648,0.004680635807148617
33.7,0.013939900944274178,0.006012213910744743
33.800000000000004,0.010068056467588134,0.004350636705986076
33.9,0.0068566171020678435,0.0029676286121931494
34.0,0.009616001414058592,0.0041562250921727975
34.1,0.0039615716652232945,0.0017170897680222456
34.2,0.009513973595311725,0.004112334783704846
34.300000000000004,0.008285281249329377,0.003583427489791412
34.4,0.006366398844765186,0.002756127862801582
34.5,0.001838989188783913,0.0007979293898766029
34.6,0.013683864833915097,0.005902533730067541
34.7,0.011462775012449657,0.0049499040082874686
34.800000000000004,0.010775082971899535,0.004654527409740187
34.9,0.015042107703118455,0.006484058765286422
35.0,0.006034654865484919,0.002612941115164461
35.1,0.010617553943876078,0.004586837455300556
35.2,0.00892859439700326,0.0038604307000262884
35.300000000000004,0.01390741778374305,0.0059983003806240226
35.4,0.008772806192446532,0.003793366309131535
35.5,0.016030436768490544,0.00690671810794942
35.6,0.00464240185456783,0.0020115040075312316
35.7,0.012847444232605518,0.0055440365573857795
35.800000000000004,0.007717565412156197,0.0033388287658370893
35.9,0.004957393980714472,0.0021476498646638043
36.0,0.007626608667901832,0.0032996275091421346
36.1,0.002395253669092406,0.00103900161119074
36.2,0.011516438864043774,0.004972945188810379
36.300000000000004,0.003888151350140755,0.0016853283893207994
36.4,0.011930941759378423,0.005150875511504831
36.5,0.002375992113369757,0.001030656332515116
36.6,0.019250540371750766,0.008280950372325123
36.7,0.011046426502554465,0.004771098529612916
36.800000000000004,0.01727307314160681,0.007437549028581094
36.9,0.0031203388648455887,0.0013530360812476325
37.0,0.014636821303177332,0.006310618871016674
37.1,0.017484577793167526,0.007527835263266899
37.2,0.00681965068216506,0.002951683335945813
37.300000000000004,0.011234817141306962,0.004852014094988689
37.4,0.0020191293677505784,0.000876012648546951
37.5,0.006640258810668382,0.0028742952541388053
37.6,0.012283731722316709,0.0053022574155424445
37.7,0.014218860599092456,0.0061316825064211536
37.800000000000004,0.013918445697702864,0.006003024023088536
37.9,0.0044877797394927066,0.0019446576357976947
38.0,0.015216810895048572,0.00655880059424073
38.1,0.0021106652821816767,0.0009156842732762163
38.2,0.0056583699685334,0.002450472533469282
