Frequency (Hz),Power,Log Power
0.0,0.004787142858649673,0.002074069246160234
0.1,0.004787161676895354,0.0020740773798831
0.2,0.004787184529294263,0.0020740872572690672
0.30000000000000004,0.004787204179919342,0.0020740957507671
0.4,0.00478723720906149,0.002074110026798833
0.5,0.004787297464399953,0.002074136070680726
0.6000000000000001,0.004787361684786669,0.002074163828355197
0.7000000000000001,0.004787424603571641,0.002074191023442785
0.8,0.004787505515402196,0.002074225995576454
0.9,0.004787597417752573,0.0020742657180864476
1.0,0.004787703761414894,0.0020743116824906717
1.1,0.0047878160334339425,0.002074360209274509
1.2000000000000002,0.004787946516984374,0.0020744166075322684
1.3,0.004788073117747507,0.0020744713275450788
1.4000000000000001,0.004788217375153987,0.0020745336791919387
1.5,0.0047883814544518715,0.0020746045983434905
1.6,0.004788548729266378,0.0020746768986648965
1.7000000000000002,0.004788717006456151,0.002074749632225511
1.8,0.004788905278861566,0.0020748310081981254
1.9000000000000001,0.00478911918662189,0.002074923464384198
2.0,0.004789323771826232,0.0020750118911143237
2.1,0.004789541143144789,0.0020751058442961506
2.2,0.004789768287112245,0.002075204021433208
2.3000000000000003,0.004790012333316561,0.002075309504102673
2.4000000000000004,0.004790262043461594,0.0020754174348376966
2.5,0.004790523094977501,0.002075530267557452
2.6,0.0047907870880645005,0.0020756443716650457
2.7,0.004791066402820082,0.002075765098130442
2.8000000000000003,0.0047913516336876415,0.0020758883816452177
2.9000000000000004,0.004791654474468754,0.002076019276542055
3.0,0.004791964842549681,0.0020761534248736305
3.1,0.004792281216091946,0.0020762901688632296
3.2,0.004792611932685158,0.0020764331122064042
3.3000000000000003,0.004792948504331211,0.0020765785861902425
3.4000000000000004,0.004793287786980518,0.0020767252318825142
3.5,0.004793630741566205,0.002076873464619008
3.6,0.004793992950006204,0.0020770300192523993
3.7,0.004794370280741368,0.0020771931100217384
3.8000000000000003,0.004794750195156286,0.002077357317453267
3.9000000000000004,0.004795127658068921,0.002077520465229753
4.0,0.004795529139062599,0.0020776939940821085
4.1000000000000005,0.004795934509449947,0.0020778692039449065
4.2,0.004796344134421543,0.0020780462526594724
4.3,0.004796762129047861,0.002078226918844162
4.4,0.004797188423979706,0.002078411172520376
4.5,0.004797627595833239,0.002078600991792484
4.6000000000000005,0.004798074345887041,0.0020787940864363317
4.7,0.004798517552924534,0.0020789856496301684
4.800000000000001,0.004798971761088259,0.002079181967649274
4.9,0.004799450269919126,0.002079388788815604
5.0,0.004799920460270428,0.002079592014471421
5.1000000000000005,0.004800393495023598,0.0020797964694385237
5.2,0.00480087824313983,0.0020800059870527774
5.300000000000001,0.0048013635876224,0.0020802157623269384
5.4,0.004801855322328964,0.00208042829947615
5.5,0.004802361422391843,0.0020806470454985864
5.6000000000000005,0.004802863311146859,0.0020808639712053306
5.7,0.00480337712162205,0.0020810860495903073
5.800000000000001,0.004803890027237336,0.0020813077367648203
5.9,0.0048044179662747235,0.0020815359215407307
6.0,0.004804948631330236,0.0020817652844300097
6.1000000000000005,0.004805467339278819,0.002081989479127652
6.2,0.0048060155584364345,0.002082226428963037
6.300000000000001,0.004806581000259172,0.002082470822597766
6.4,0.0048071579493742765,0.002082720189739513
6.5,0.004807569687878287,0.002082898149980147
6.6000000000000005,0.004808292738395477,0.002083210664282651
6.7,0.004808759077131976,0.002083412223420282
6.800000000000001,0.004809269433174919,0.002083632807441851
6.9,0.0048099705584592305,0.002083935844789448
7.0,0.004810452614197184,0.00208414419671956
7.1000000000000005,0.004811046038125175,0.0020844006835630093
7.2,0.004811579554277985,0.0020846312772259405
7.300000000000001,0.004812251126134414,0.0020849215404552678
7.4,0.004812746693390807,0.0020851357317845706
7.5,0.004813294051432181,0.0020853723077168627
7.6000000000000005,0.0048139355158943525,0.0020856495576188163
7.7,0.004814557800672008,0.00208591851762414
7.800000000000001,0.004815025973944875,0.002086120868416147
7.9,0.004815478084774854,0.002086316276714665
8.0,0.0048164366579669625,0.002086730584474011
8.1,0.004816757284843718,0.002086869163478059
8.200000000000001,0.00481708814542235,0.0020870121655716402
8.3,0.004817444084138858,0.0020871660066984652
8.4,0.00481873049510871,0.0020877220090163855
8.5,0.004819451522814647,0.002088033645565502
8.6,0.004819769806929749,0.002088171211585694
8.700000000000001,0.0048203186572787675,0.0020884084308563514
8.8,0.00482120824851046,0.0020887929218791003
8.9,0.004821405857756594,0.0020888783307021802
9.0,0.004822302119584892,0.002089265704409006
9.1,0.00482285595883565,0.0020895050793350344
9.200000000000001,0.004823755528984062,0.0020898938823706425
9.3,0.004824133779793999,0.002090057365974348
9.4,0.004824952328308461,0.002090411150229907
9.5,0.004825629853101294,0.0020907039825078496
9.600000000000001,0.004824867482796462,0.0020903744792265403
9.700000000000001,0.0048273125030021,0.0020914312379970617
9.8,0.004827799052284929,0.0020916415284767628
9.9,0.004828207247370552,0.002091817953569135
10.0,0.00482611241565007,0.0020909125502389775
10.100000000000001,0.004825668451338411,0.0020907206650053324
10.200000000000001,0.0048290981732632245,0.0020922030184236293
10.3,0.004827035770688572,0.002091311632039127
10.4,0.004829426827363382,0.0020923450651050704
10.5,0.004835215055193942,0.0020948467714638768
10.600000000000001,0.0048267803722116705,0.0020912012467097984
10.700000000000001,0.004832748361431235,0.0020937806535685504
10.8,0.004833528385310667,0.0020941177842359986
10.9,0.004830342508844689,0.002092740829025491
11.0,0.0048313687239486605,0.00209318436591971
11.100000000000001,0.004838044199709465,0.0020960695392406303
11.200000000000001,0.004834418415477897,0.0020945024599143105
11.3,0.004830831770457575,0.002092952291157871
11.4,0.004833698168295202,0.002094191165353371
11.5,0.004841850694944272,0.0020977147165448
11.600000000000001,0.0048507213280095845,0.0021015486034236816
11.700000000000001,0.004854428812660609,0.002103150967955201
11.8,0.0048330410369061255,0.0020939071495704596
11.9,0.004839849660863274,0.0020968498651015403
12.0,0.004840046250636879,0.002096934831721383
12.100000000000001,0.004828852717716294,0.0020920969307288884
12.200000000000001,0.004841718331977771,0.002097657509025285
12.3,0.004831094036338446,0.0020930656441785485
12.4,0.004833245326995245,0.0020939954448849518
12.5,0.004831015976155813,0.0020930319060626125
12.600000000000001,0.004840806115713011,0.002097263247259794
12.700000000000001,0.00483504338829115,0.0020947725762188126
12.8,0.004836407818691667,0.0020953622891229724
12.9,0.004844432331777019,0.0020988305032625713
13.0,0.004832874790442962,0.0020938352969097143
13.100000000000001,0.0048292651724657285,0.0020922751966937635
13.200000000000001,0.004820115478175196,0.0020883206145863287
13.3,0.004837436624336816,0.0020958069429814702
13.4,0.004869094593723124,0.0021094894197015842
13.5,0.004849300860530728,0.0021009346797724563
13.600000000000001,0.0048579181811411526,0.002104659057885306
13.700000000000001,0.004842486215849416,0.002097989389753037
13.8,0.00485312547041062,0.002102587667741737
13.9,0.004845090134298761,0.002099114805889523
14.0,0.004849458162437625,0.002101002665434311
14.100000000000001,0.004841638604736574,0.0020976230507601915
14.200000000000001,0.004852097132109216,0.002102143222810405
14.3,0.004851169518505341,0.00210174231042079
14.4,0.004827707994873904,0.0020916021727454236
14.5,0.004854682430814635,0.0021032605807983643
14.600000000000001,0.004852232675544867,0.002102201804329348
14.700000000000001,0.004874271247104377,0.002111726712319574
14.8,0.0048437927105387055,0.0020985540584181504
14.9,0.004822385071830653,0.0020893015572171283
15.0,0.004808665020192883,0.002083371570498828
15.100000000000001,0.004801703000838115,0.0020803624632242863
15.200000000000001,0.004862431107985739,0.0021066095175365433
15.3,0.004845670962336856,0.0020993658399458756
15.4,0.004835006557067625,0.0020947566575887006
15.5,0.004852751472200651,0.00210242602681628
15.600000000000001,0.004855434348159002,0.0021035855565755064
15.700000000000001,0.004841523190089726,0.002097573168325828
15.8,0.0048532412883100055,0.002102637723884655
15.9,0.004843564572893152,0.002098455457090764
16.0,0.00489145240299411,0.002119152136196622
16.1,0.004837894079062487,0.002096004656572355
16.2,0.004848423103845808,0.0021005553143780956
16.3,0.004845626678303903,0.00209934670037838
16.400000000000002,0.004912820351517042,0.0021283868485108518
16.5,0.004927399046491611,0.0021346872963970143
16.6,0.004917145765520287,0.0021302561642891037
16.7,0.004913344902558852,0.002128613544358411
16.8,0.0046529378690925785,0.002016058572386751
16.900000000000002,0.0048338789293276615,0.0020942692912283107
17.0,0.004877247001133148,0.0021130127952432107
17.1,0.004762208891134784,0.002063292019420512
17.2,0.004867779539153348,0.0021089210657539944
17.3,0.004905146055475798,0.0021250702253351587
17.400000000000002,0.004857198976338182,0.0021043482211158013
17.5,0.004816681125871263,0.0020868362466078924
17.6,0.004882998823697453,0.002115498648772985
17.7,0.004822909734594331,0.0020895283217548456
17.8,0.0048643674423369445,0.002107446386830915
17.900000000000002,0.004645574726637264,0.002012875598709345
18.0,0.00491089609939647,0.0021275552411704687
18.1,0.004824198549631922,0.0020900853601091996
18.2,0.004695551920052397,0.0020344795155733354
18.3,0.004630560463553809,0.002006385090517943
18.400000000000002,0.00484164046342046,0.002097623854086923
18.5,0.004842014830978412,0.002097785656432524
18.6,0.004742075939185959,0.002054589743936817
18.7,0.0048348244326935795,0.00209467794255856
18.8,0.004789404264498685,0.0020750466820115645
18.900000000000002,0.004586414167708904,0.0019873005487019177
19.0,0.004670551807559059,0.002023672713484642
19.1,0.0049450066633946535,0.002142296626062902
19.200000000000003,0.005042231484869416,0.002184311025659149
19.3,0.0049135287901466455,0.0021286930152478968
19.400000000000002,0.0047944687195167045,0.0020772356574484674
19.5,0.004880136730999328,0.002114261695976481
19.6,0.005189074146978144,0.0022477594037602884
19.700000000000003,0.004483148923174468,0.0019426554784294566
19.8,0.006060492968697495,0.002624095006828927
19.900000000000002,0.004351667041555456,0.0018858047555277064
20.0,0.004293020379006699,0.0018604444495525345
20.1,0.00562778954987742,0.002437266151061023
20.200000000000003,0.00484140021324727,0.0020975200174894724
20.3,0.005211571991731672,0.0022574795457133727
20.400000000000002,0.004928704448303806,0.00213525144504698
20.5,0.004277652439787005,0.0018537987175483205
20.6,0.005217561629466445,0.002260067318217635
20.700000000000003,0.007457177453683093,0.003226595268917175
20.8,0.00461350785904378,0.0019990133110933173
20.900000000000002,0.004393918737415772,0.0019040745438929183
21.0,0.00474824762232707,0.002057257413346183
21.1,0.005236930284665032,0.0022684352769142603
21.200000000000003,0.004486870524475338,0.0019442645327141747
21.3,0.005761402051444817,0.0024949647530735667
21.400000000000002,0.0026412416480371985,0.001145564481897403
21.5,0.0034726656223418614,0.0015055468971807123
21.6,0.00441103060849823,0.0019114735610933648
21.700000000000003,0.007717207941273888,0.003338674707136063
21.8,0.004859474479436203,0.002105331681572736
21.900000000000002,0.003994810235741717,0.001731467896844094
22.0,0.0058503748340822505,0.002533382094837321
22.1,0.004524940861724833,0.0019607241048280443
22.200000000000003,0.005556460591828899,0.0024064606464024828
22.3,0.005636885198994461,0.0024411942170887925
22.400000000000002,0.005013177447196138,0.0021717561396760823
22.5,0.004761380587092259,0.0020629339963777723
22.6,0.00594881847857637,0.0025758848771810184
22.700000000000003,0.00474168558591844,0.0020544210157556705
22.8,0.004622940333679665,0.002003090951322106
22.900000000000002,0.00617137907237008,0.0026719594936831324
23.0,0.0053681025740408145,0.0023251022011528157
23.1,0.003953709505694365,0.0017136887355869515
23.200000000000003,0.005944949323026315,0.002574214458064598
23.3,0.004586768585948711,0.001987453767834131
23.400000000000002,0.005778891154492194,0.002502516598763991
23.5,0.005128491605345847,0.00222158377460912
23.6,0.003836849997140821,0.0016631342197886872
23.700000000000003,0.0055125154908392685,0.0023874805765029135
23.8,0.005576055974223198,0.0024149237052759082
23.900000000000002,0.005470386603201563,0.0023692841578128983
24.0,0.0055469548210766466,0.002402355135216669
24.1,0.0063253228686376275,0.0027384012834342428
24.200000000000003,0.006355374558499503,0.0027513703381845107
24.3,0.007851926605225467,0.003396730341594687
24.400000000000002,0.006430932795863559,0.0027839764081335223
24.5,0.005271186792735501,0.0022832349310905665
24.6,0.00639936847705858,0.0027703555783254036
24.700000000000003,0.010711448709631017,0.004627185145976115
24.8,0.012491936954240626,0.00539157336796668
24.900000000000002,0.003856112802356481,0.0016714678944753738
25.0,0.0035565687814526807,0.0015418579567434898
25.1,0.0008611784869520747,0.0003738441146570913
25.200000000000003,0.004145448377522207,0.0017966240168726536
25.3,0.002303069523699226,0.000999060373920024
25.400000000000002,0.002859245366962203,0.0012399826215582388
25.5,0.0034749644396774877,0.0015065418047396344
25.6,0.005898945494564629,0.0025543528685025908
25.700000000000003,0.0040528708282444445,0.0017565822356964615
25.8,0.00394702036952206,0.0017107951115296301
25.900000000000002,0.006426291643697168,0.002781973656273077
26.0,0.001848118260455517,0.000801886799630969
26.1,0.004517190723336669,0.0019573734111984122
26.200000000000003,0.0007927725230677652,0.0003441603297643278
26.3,0.005149491410126626,0.002230657245457197
26.400000000000002,0.003116572561043825,0.0013514054812432705
26.5,0.007028401582656259,0.0030417192891532795
26.6,0.009856513834252942,0.004259671132289552
26.700000000000003,0.0067446309334967805,0.0029193221511622353
26.8,0.002910891681346127,0.0012623478058215714
26.900000000000002,0.005229576225677693,0.0022652580767694576
27.0,0.005503281109473326,0.002383492103734216
27.1,0.0030020455325478206,0.00130181872589393
27.200000000000003,0.0016716270103305732,0.0007253722792099194
27.3,0.00951623208313207,0.0041133063875917536
27.400000000000002,0.0030103634157810297,0.001305420309586182
27.5,0.003749808540169386,0.001625475447428934
27.6,0.007320897641476705,0.0031678438150891594
27.700000000000003,0.006752384227785519,0.002922666792749255
27.8,0.005811059586082571,0.0025164066784267775
27.900000000000002,0.0032320957215250935,0.0014014177966275348
28.0,0.006594053640535555,0.002854360514994409
28.1,0.012326817662506763,0.005320741944412138
28.200000000000003,0.005669052103549396,0.002455085598693341
28.3,0.001687091443584005,0.0007320771373723924
28.400000000000002,0.0135892846225709,0.00586201066199967
28.5,0.011814451385037871,0.005100877990079197
28.6,0.005785423925284269,0.0025053374345536186
28.700000000000003,0.008221456763467045,0.0035559357670938495
28.8,0.008875063661260466,0.0038373877215304207
28.900000000000002,0.0008789532218853805,0.00038155687334811775
29.0,0.002687247769347575,0.0011654915958119534
29.1,0.0074625098504751556,0.003228893951605855
29.200000000000003,0.0033968528654977105,0.0014727345377646055
29.3,0.00225915149819706,0.0009800304271968272
29.400000000000002,0.014005559136126495,0.006040335959374244
29.5,0.011274823877361926,0.004869195426891861
29.6,0.004197755895911821,0.0018192465114298065
29.700000000000003,0.017347898837723027,0.007469492459215066
29.8,0.0068200890585615745,0.002951872430793562
29.900000000000002,0.009281069201309881,0.004012127391244945
30.0,0.006826392809322529,0.0029545915616791766
30.1,0.0033986522936755277,0.0014735133732026848
30.200000000000003,0.008565521811084673,0.0037041175578662066
30.3,0.009038246073980316,0.003907627826693031
30.400000000000002,0.016341163221950877,0.007039515461712159
30.5,0.012133339942359959,0.005237730869907964
30.6,0.00928521874436333,0.004013912939394908
30.700000000000003,0.003319578877665246,0.0014392871946362481
30.8,0.013808561295372229,0.005955954383574383
30.900000000000002,0.003798023288548863,0.0016463361201756023
31.0,0.011857951756460948,0.005119548967894993
31.1,0.006991181289769511,0.0030256672428327696
31.200000000000003,0.006554121325699839,0.0028371313967400376
31.3,0.015931919758232632,0.006864605719573035
31.400000000000002,0.02678593688690269,0.011479911835945057
31.5,0.030019478107940506,0.012845437476834476
31.6,0.02087469195019671,0.008972437547850655
31.700000000000003,0.014567122049235147,0.006280784510117732
31.8,0.019257115058959235,0.008283751784787189
31.900000000000002,0.00655518848594448,0.0028375918404956596
32.0,0.01573042922574434,0.006778463229659714
32.1,0.022486280456159136,0.009657489430325152
32.2,0.012868581937022549,0.005553100007810377
32.300000000000004,0.014756403175802088,0.00636180042306903
32.4,0.015732412543374992,0.0067793112332610655
32.5,0.008670532799729035,0.0037493335779193405
32.6,0.0252148679659405,0.01081489582350534
32.7,0.0033647611908014558,0.0014588442608735118
32.800000000000004,0.006173526720909092,0.0026728864837899215
32.9,0.005009578076149689,0.0021702007473507526
33.0,0.015235353657246943,0.006566732836568631
33.1,0.01966577714058004,0.008457843399596668
33.2,0.0036216842342015696,0.0015700361036349395
33.300000000000004,0.016437602097710242,0.007080722967742054
33.4,0.017803751869853824,0.007664047454323491
33.5,0.016627838470494788,0.007161997879557654
33.6,0.01510092431597771,0.006509223229083579
33.7,0.021892784617972626,0.009405332695596957
33.800000000000004,0.021504532549888312,0.009240297994446141
33.9,0.007304568928556713,0.0031608038267284724
34.0,0.011484201223147021,0.004959103740345363
34.1,0.013904302696385346,0.005996966070109493
34.2,0.01026846898275543,0.0044367986385459145
34.300000000000004,0.01223402276247008,0.0052809305322201044
34.4,0.032404609937280136,0.0138499351064814
34.5,0.029194322317492756,0.012497381703695439
34.6,0.006398808330937913,0.0027701138567537776
34.7,0.028139718820689583,0.012052137022748549
34.800000000000004,0.06365116185157767,0.02679921882071665
34.9,0.056400613675153845,0.023828644821572886
35.0,0.03740571189383233,0.015948634863603796
35.1,0.023691217420416473,0.01016897734928554
35.2,0.044019859136126084,0.01870875980724489
35.300000000000004,0.027891673281697348,0.01194734795213276
35.4,0.012413101502549317,0.005357756669390711
35.5,0.0023691002398369384,0.0010276703143358682
35.6,0.036909732583161325,0.015740950846748026
35.7,0.01661342191711136,0.007155839210928883
35.800000000000004,0.016250758763527492,0.007000882859630135
35.9,0.05300019477435176,0.022428451517317795
36.0,0.0197842897540886,0.008508317176793888
36.1,0.014516883926553798,0.0062592791023554735
36.2,0.003052076339025033,0.0013234812552801035
36.300000000000004,0.009300946387534204,0.004020680476754076
36.4,0.04070194660120416,0.017326366897045406
36.5,0.024458930663363816,0.010494552738397339
36.6,0.03339910773472146,0.014268082227976452
36.7,0.05348613544511487,0.02262882438711606
36.800000000000004,0.03412697633959626,0.0145738673246114
36.9,0.0398750368433892,0.01698115269289177
37.0,0.04088465284528348,0.017402605198961644
37.1,0.001701115011951763,0.000738157195485086
37.2,0.027800007128978912,0.011908616361487486
37.300000000000004,0.024474335515624123,0.01050108320226527
37.4,0.01118875514865217,0.004832231424817132
37.5,0.03046271585796159,0.013032282781820094
37.6,0.03538714777330539,0.015102769796140511
37.7,0.047598740376887154,0.020194967561808466
37.800000000000004,0.014728820266473907,0.0063499953552829565
37.9,0.027692411511990256,0.011863149706048551
38.0,0.05826985376590844,0.02459642484280961
38.1,0.058081496782714695,0.024519119721782542
38.2,0.11019294737718995,0.045398464101139874
38.300000000000004,0.049174757452118266,0.020847833165807995
