Frequency (Hz),Power,Log Power
0.0,0.01901916381925317,0.00818235148698972
0.1,0.019019217793821583,0.008182374490341784
0.2,0.019019370860105574,0.008182439725458446
0.30000000000000004,0.019019627570251385,0.008182549132393111
0.4,0.019019988952128808,0.00818270314917856
0.5,0.01902045090477377,0.008182900027984996
0.6000000000000001,0.019021017724487926,0.008183141599786
0.7000000000000001,0.01902168407588906,0.008183425590632983
0.8,0.019022455548518356,0.008183754382634438
0.9,0.019023325459861844,0.008184125127688062
1.0,0.019024301530104797,0.008184541115925927
1.1,0.019025376276209434,0.008184999158050944
1.2000000000000002,0.019026552531878328,0.008185500461613503
1.3,0.01902782961624918,0.008186044736290444
1.4000000000000001,0.019029206912033997,0.008186631718841517
1.5,0.01903068754428536,0.008187262740940811
1.6,0.019032262326616898,0.008187933887312203
1.7000000000000002,0.019033938771108875,0.008188648359287402
1.8,0.019035716544757088,0.008189406014732021
1.9000000000000001,0.019037589090573646,0.008190204058956459
2.0,0.019039559979797352,0.00819104401372926
2.1,0.019041626210861518,0.008191924599601426
2.2,0.019043794490999674,0.008192848674804196
2.3000000000000003,0.01904605266323756,0.008193811058031374
2.4000000000000004,0.01904840967564288,0.008194815562484227
2.5,0.01905086069856155,0.008195860129590503
2.6,0.019053404247788053,0.008196944126530747
2.7,0.01905604240282225,0.008198068439236962
2.8000000000000003,0.019058771332669717,0.008199231434732852
2.9000000000000004,0.019061594629485028,0.008200434643579694
3.0,0.019064504484399215,0.008201674737539433
3.1,0.019067507887552848,0.008202954695273948
3.2,0.019070598571802586,0.008204271845579583
3.3000000000000003,0.019073775948912113,0.008205625937431852
3.4000000000000004,0.01907704460293994,0.0082070189240482
3.5,0.01908039559143229,0.008208446994110311
3.6,0.019083835411926063,0.008209912916273465
3.7,0.019087355163368996,0.008211412896880023
3.8000000000000003,0.019090960789666475,0.008212949468624083
3.9000000000000004,0.01909465007916213,0.008214521688604025
4.0,0.019098415693212342,0.008216126429028683
4.1000000000000005,0.019102263100839484,0.008217766020183266
4.2,0.019106191371689226,0.008219440065200314
4.3,0.019110198232293953,0.008221147594841651
4.4,0.019114278595744563,0.00822288644093141
4.5,0.019118435246469605,0.008224657789669744
4.6000000000000005,0.019122664262568333,0.00822645996935895
4.7,0.01912696965698447,0.008228294689705479
4.800000000000001,0.019131345752397284,0.008230159530953275
4.9,0.019135790866954397,0.008232053776009676
5.0,0.019140307259467058,0.008233978387055408
5.1000000000000005,0.019144882883000626,0.008235928230052291
5.2,0.019149530413655448,0.00823790870638071
5.300000000000001,0.019154245149861273,0.008239917812130602
5.4,0.01915902232852995,0.00824195351720888
5.5,0.019163867058223646,0.008244017998143983
5.6000000000000005,0.01916876029956671,0.00824610314134914
5.7,0.019173720361229905,0.008248216748292682
5.800000000000001,0.019178726865541992,0.008250350135184917
5.9,0.01918380182430522,0.00825251268140105
6.0,0.019188919861198465,0.008254693573204928
6.1000000000000005,0.019194101876686683,0.008256901716333673
6.2,0.019199332133152266,0.008259130404362295
6.300000000000001,0.019204597102691612,0.008261373872583178
6.4,0.019209944349892354,0.00826365238846448
6.5,0.019215321296812412,0.008265943547641388
6.6000000000000005,0.01922071887245208,0.008268243484720331
6.7,0.019226192942429266,0.008270576004023065
6.800000000000001,0.01923169984432994,0.008272922500476418
6.9,0.019237253510221177,0.008275288910273246
7.0,0.01924283789633309,0.008277668396914769
7.1000000000000005,0.01924845149659629,0.00828006031846043
7.2,0.01925407721714948,0.008282457391172941
7.300000000000001,0.019259704818973822,0.00828485525224231
7.4,0.019265468366025097,0.008287311024399105
7.5,0.019271283647432354,0.008289788825815561
7.6000000000000005,0.019276994968057234,0.008292222317391691
7.7,0.019282789141279587,0.008294691097044235
7.800000000000001,0.019288621717806015,0.008297176225391681
7.9,0.01929434028250997,0.008299612762085606
8.0,0.01930023339531214,0.008302123655035364
8.1,0.019306116789117863,0.008304630392507709
8.200000000000001,0.019311950153640223,0.008307115799719737
8.3,0.019318055547139595,0.008309717094411907
8.4,0.019324083365994508,0.008312285321975395
8.5,0.019329553099916914,0.008314615757334809
8.6,0.019335331525131044,0.0083170777001519
8.700000000000001,0.019341232145225665,0.008319591690642236
8.8,0.019346697788477012,0.008321920343958178
8.9,0.019354383267375066,0.008325194743630792
9.0,0.019360941116097655,0.008327988696743695
9.1,0.019367790860019257,0.008330906991797733
9.200000000000001,0.01937155841295195,0.008332512128275385
9.3,0.01937752877908771,0.008335055743950284
9.4,0.01938396569330782,0.00833779811115111
9.5,0.019389617913959087,0.008340206155142856
9.600000000000001,0.01939590078830112,0.00834288286402886
9.700000000000001,0.01940032335372557,0.008344767010896504
9.8,0.01940585147102947,0.008347122144866626
9.9,0.019414004962804543,0.008350595739137354
10.0,0.01941675080632475,0.00835176553185858
10.100000000000001,0.01942192181705928,0.00835396849323852
10.200000000000001,0.019432821013816107,0.0083586117480122
10.3,0.01943262851375655,0.008358529739938836
10.4,0.019445530362625422,0.008364026097576348
10.5,0.01945504100876645,0.00836807771362505
10.600000000000001,0.019453304158049398,0.008367337803286183
10.700000000000001,0.01947533098164302,0.008376721288098875
10.8,0.019454565480489974,0.00836787513543744
10.9,0.019460243237678383,0.00837029389134227
11.0,0.01947693209182082,0.008377403357343672
11.100000000000001,0.019466328471886354,0.008372886219750995
11.200000000000001,0.01947364880005086,0.00837600468146446
11.3,0.01947724742724213,0.008377537689379976
11.4,0.019501909956176483,0.008388043731276119
11.5,0.019495894161048473,0.008385481073657748
11.600000000000001,0.019507889337959435,0.008390590862255552
11.700000000000001,0.019513548492114764,0.00839300156709297
11.8,0.019516478908545486,0.008394249870127742
11.9,0.019522550542155282,0.008396836261986588
12.0,0.019520972017408385,0.008396163844179369
12.100000000000001,0.019526399539240895,0.00839847584812318
12.200000000000001,0.019532619603773355,0.008401125442546998
12.3,0.01953991148055245,0.008404231582029142
12.4,0.019533524845104504,0.008401511051729921
12.5,0.01955350506125992,0.00841002201521163
12.600000000000001,0.01955397051849911,0.008410220283829607
12.700000000000001,0.019560198945852827,0.008412873368851756
12.8,0.019569035069103437,0.008416637210304358
12.9,0.019563444312273533,0.008414255771270493
13.0,0.01956653580297835,0.008415572624405926
13.100000000000001,0.01957026704457784,0.008417161980877778
13.200000000000001,0.019572853174541383,0.008418263563166438
13.3,0.01957945804020934,0.008421076944685354
13.4,0.019591308617801666,0.008426124722478102
13.5,0.019593336876454644,0.008426988657524719
13.600000000000001,0.019586233053813844,0.008423962782786835
13.700000000000001,0.01960195417418759,0.008430659168996357
13.8,0.01960684655866685,0.00843274305131577
13.9,0.019604648072459444,0.008431806620316843
14.0,0.01961239101726414,0.00843510466867354
14.100000000000001,0.019620653475594108,0.008438623972236584
14.200000000000001,0.019603889547387978,0.008431483530993877
14.3,0.019632613190109068,0.008443718031031482
14.4,0.01961411032775248,0.008435836992480935
14.5,0.019613891557633434,0.00843574380951615
14.600000000000001,0.019635352093646908,0.008444884616995912
14.700000000000001,0.019636035013495697,0.008445175493750949
14.8,0.01963285868181587,0.00844382259387056
14.9,0.019638374211914056,0.008446171829467759
15.0,0.019630771313105727,0.008442933515382368
15.100000000000001,0.01964432613343542,0.00844870692347218
15.200000000000001,0.01963751327597167,0.008445805130943725
15.3,0.019655177377743728,0.008453328741421793
15.4,0.01962997935422278,0.008442596193759684
15.5,0.019653271103653776,0.008452516814889583
15.600000000000001,0.019638898445985507,0.008446395116381731
15.700000000000001,0.019649156255649784,0.008450764200115054
15.8,0.019638844426059853,0.008446372107690834
15.9,0.019631375618101205,0.008443190908798286
16.0,0.019660214151109547,0.008455474013201156
16.1,0.019655035144384256,0.00845326816097375
16.2,0.019630929172530055,0.0084430007529291
16.3,0.019657273786287493,0.00845422164889343
16.400000000000002,0.019647569179797573,0.008450088223660607
16.5,0.019640901459917422,0.008447248258650786
16.6,0.019632259812276797,0.008443567515966428
16.7,0.019637256936563496,0.008445695948216536
16.8,0.019625470901824937,0.008440675888975829
16.900000000000002,0.019625944094470722,0.008440877438381168
17.0,0.019663225486768788,0.00845675660176417
17.1,0.019649973172776843,0.008451112145735521
17.2,0.019635974118392283,0.008445149556644702
17.3,0.019621304030354537,0.008438901067695143
17.400000000000002,0.019589036554615222,0.0084251569370571
17.5,0.019621274760903838,0.008438888600751746
17.6,0.019601074719887195,0.008430284569562773
17.7,0.0195994036417522,0.008429572780780306
17.8,0.019724717435902935,0.008482946434151109
17.900000000000002,0.019715693587337376,0.008479103215573637
18.0,0.019695623207466054,0.008470555204531183
18.1,0.01966696179999832,0.008458347967623745
18.2,0.019593410851997582,0.008427020167311717
18.3,0.019541100253906395,0.00840473796476224
18.400000000000002,0.01954986751374094,0.008408472543187405
18.5,0.019657282882179664,0.008454225523034185
18.6,0.019506518954362836,0.00839000709979495
18.7,0.019920043628349576,0.008566126691252124
18.8,0.020469693148346183,0.00880011116489158
18.900000000000002,0.019667350522259205,0.008458513531388205
19.0,0.01940909749960693,0.008348505038689254
19.1,0.01950804742759236,0.008390658205971699
19.200000000000003,0.019799271859456975,0.008514697543660368
19.3,0.01959617160271738,0.00842819610388362
19.400000000000002,0.019459920840258115,0.008370156548622247
19.5,0.019932025149838047,0.008571228540299878
19.6,0.019094487492176144,0.008214452400990242
19.700000000000003,0.01952798466436211,0.008399151073951956
19.8,0.01836546491011355,0.007903662981339566
19.900000000000002,0.021043598394873703,0.009044286786280319
20.0,0.019604237373912776,0.008431631685699952
20.1,0.019217010939898232,0.008266663515291909
20.200000000000003,0.019089146776908247,0.008212176410612108
20.3,0.019588818087540354,0.008425063880882643
20.400000000000002,0.019214172141326775,0.008265453884508202
20.5,0.020428916893747644,0.008782757140267333
20.6,0.01937842750057265,0.008335438634095135
20.700000000000003,0.01816112189891771,0.00781650964580203
20.8,0.020394870762259848,0.008768266867147113
20.900000000000002,0.01984477973916577,0.008534077220254862
21.0,0.019894684876242217,0.008555328488891076
21.1,0.019316472934630027,0.008309042800054326
21.200000000000003,0.019362830922089028,0.008328793839966259
21.3,0.019097674693634038,0.008215810647804793
21.400000000000002,0.01913126121887655,0.008230123507683736
21.5,0.01896858351208058,0.008160794195164658
21.6,0.019203363156775007,0.008260848074104194
21.700000000000003,0.019478114106683386,0.008377906892262933
21.8,0.0214738363886384,0.009227247270414837
21.900000000000002,0.020450108584130676,0.008791776228690464
22.0,0.01987156733028436,0.00854548439755536
22.1,0.021145171356005937,0.009087488058581953
22.200000000000003,0.019633769558090357,0.008444210565246342
22.3,0.020688609814347628,0.008893268369080687
22.400000000000002,0.018932013459721606,0.008145207397685194
22.5,0.01915281707497675,0.008239309262954169
22.6,0.01891114517525219,0.008136312718275017
22.700000000000003,0.018683658056604307,0.008039339168296767
22.8,0.018765182165003228,0.008074093876969373
22.900000000000002,0.019151944654188322,0.00823893749564885
23.0,0.01936409654164607,0.00832933305057113
23.1,0.019615205517971496,0.008436303477603557
23.200000000000003,0.017566923482198182,0.007562981576125947
23.3,0.018659999966027366,0.008029252918831711
23.400000000000002,0.0188515623136849,0.008110915739611167
23.5,0.01896177794688893,0.008157893586326537
23.6,0.01887461265821232,0.008120741041516364
23.700000000000003,0.01908871566177621,0.00821199268678078
23.8,0.01804377912262903,0.0077664544472665605
23.900000000000002,0.019382874415901086,0.008337333187211098
24.0,0.018984689290831268,0.008167658583010698
24.1,0.01935139420215272,0.008323921254786634
24.200000000000003,0.02035777673646968,0.00875247883841787
24.3,0.01759937139516241,0.007576830026334898
24.400000000000002,0.019169130562761236,0.008246260920158007
24.5,0.018930891066677155,0.008144729005243212
24.6,0.020326845862029905,0.00873931354286756
24.700000000000003,0.019749575064001657,0.008493533015954803
24.8,0.0225257817221696,0.009674267015333976
24.900000000000002,0.015553894607932557,0.006702976002515786
25.0,0.017416649993378608,0.0074988405698396855
25.1,0.01758883512182599,0.007572333296887327
25.200000000000003,0.01656291965788136,0.007134264247593636
25.3,0.01818287708735326,0.007825789176466215
25.400000000000002,0.019138161197063838,0.008233063867205431
25.5,0.01766461449204102,0.00760467380204443
25.6,0.01762390398693674,0.007587300002149183
25.700000000000003,0.01948003852506574,0.008378726687689615
25.8,0.018523110377182066,0.007970887627215954
25.900000000000002,0.018862928599588512,0.00811576069239501
26.0,0.021085504466925354,0.009062110905066234
26.1,0.021156170150031784,0.009092165836004855
26.200000000000003,0.017635755542025608,0.007592357897295907
26.3,0.01734023123105586,0.007466219231032571
26.400000000000002,0.019209603177430614,0.008263507011799861
26.5,0.017639014477607243,0.007593748704827966
26.6,0.01895764130213078,0.00815613049208929
26.700000000000003,0.01728932027257895,0.007444485202522924
26.8,0.017465308035159808,0.007519610245413745
26.900000000000002,0.01722130657918371,0.007415448272111669
27.0,0.018304445898973135,0.007877639893654404
27.1,0.01997979710981666,0.0085915697122915
27.200000000000003,0.01902255797855263,0.008183798037017293
27.3,0.020300427776354754,0.008728068736939522
27.400000000000002,0.016978792040193334,0.007311896289555673
27.5,0.018692463403398994,0.008043093127601464
27.6,0.016123260427983066,0.006946393062842202
27.700000000000003,0.01977119833842135,0.008502741913342823
27.8,0.01538242788159603,0.006629643271764625
27.900000000000002,0.015740365882876372,0.006782711811890302
28.0,0.020822108358480366,0.008950067170698961
28.1,0.01728873412390294,0.007444234967703935
28.200000000000003,0.01845642110994869,0.00794245063968192
28.3,0.015144900507707029,0.006528037322601415
28.400000000000002,0.023678681745601015,0.010163659136488137
28.5,0.014737784544610805,0.006353831965868121
28.6,0.0177031421524162,0.007621115401110784
28.700000000000003,0.016333002965442142,0.007036028474538679
28.8,0.0215641984448872,0.009265664315774465
28.900000000000002,0.034115154688557824,0.014568902646892137
29.0,0.016656953056487463,0.007174435196841592
29.1,0.01703723823354805,0.0073368546565413285
29.200000000000003,0.01551817764539283,0.006687701626037588
29.3,0.019877997665553874,0.00854822263480988
29.400000000000002,0.012784732441094494,0.005517145806611022
29.5,0.01693672159885882,0.0072939299970494675
29.6,0.014336754522687619,0.006182162444110053
29.700000000000003,0.01726881621590993,0.007435731656965715
29.8,0.013593347466060397,0.005863751472600908
29.900000000000002,0.01768370425524142,0.007612820396652008
30.0,0.01981159450733346,0.008519945268178251
30.1,0.020342998466215702,0.008746188723471594
30.200000000000003,0.01337896977864569,0.005771887320098772
30.3,0.014007318524995576,0.00604108949786087
30.400000000000002,0.016781339678969574,0.007227567297310933
30.5,0.019650204393238526,0.008451210628314701
30.6,0.013565948585609992,0.005852011711829411
30.700000000000003,0.019655639339845942,0.008453525501611714
30.8,0.021637249514090316,0.009296719184394822
30.900000000000002,0.016721275856787968,0.007201911675976852
31.0,0.023005688813855826,0.009878048779214667
31.1,0.018386742266300982,0.00791273687687723
31.200000000000003,0.020143608527133258,0.008661312939166567
31.3,0.022408997334308598,0.009624662679983022
31.400000000000002,0.022027659052644373,0.00946264923450063
31.5,0.023237299888205352,0.0099763630190411
31.6,0.014339642590132576,0.006183398986080475
31.700000000000003,0.026125678929212536,0.01120055602214832
31.8,0.021721786912048666,0.009332654254849129
31.900000000000002,0.021734093203770927,0.009337885152799678
32.0,0.0157786034112493,0.006799060512372015
32.1,0.020652314711284616,0.00887782483116631
32.2,0.019148513545311475,0.008237475383774217
32.300000000000004,0.014547741410609192,0.006272488376110895
32.4,0.019205329115569228,0.008261685791348247
32.5,0.02228302354582539,0.009571148780859542
32.6,0.019359524702995373,0.008327385239423514
32.7,0.018729792964725007,0.008059007376547085
32.800000000000004,0.017207804960437362,0.007409683825972817
32.9,0.020402510006424967,0.008771518225285909
33.0,0.019104353111344046,0.008218656685557404
33.1,0.022139845096486362,0.009510318302458185
33.2,0.01830131590874996,0.007876304988777033
33.300000000000004,0.0209418895337093,0.009001023406141638
33.4,0.022124862187199876,0.00950395220436643
33.5,0.02280890234154617,0.00979449939045733
33.6,0.013983779675132748,0.006031007804094747
33.7,0.02009568459464779,0.008640910332959077
33.800000000000004,0.010317785059805412,0.004457998129627631
33.9,0.012778232688331663,0.005514358624176046
34.0,0.014414171411462645,0.006215307693423503
34.1,0.019134268762678756,0.008231405146074983
34.2,0.02688622581722008,0.011522328468802386
34.300000000000004,0.029073148567014203,0.012446246375571532
34.4,0.02234010690399499,0.009595398714354702
34.5,0.017428529285195796,0.007503911334866711
34.6,0.011894092789606691,0.005135060602642394
34.7,0.024136100528629686,0.010357675175840575
34.800000000000004,0.013675959360739787,0.005899146760141565
34.9,0.007752186654385033,0.0033537491727969973
35.0,0.029841499253291406,0.012770388494877471
35.1,0.03370092915523526,0.014394906644832482
35.2,0.031925224975151205,0.013648228727993384
35.300000000000004,0.01730162733149428,0.00744973921958393
35.4,0.05304982004923014,0.02244891825162606
35.5,0.037987224106855906,0.016192008103922576
35.6,0.01395695749510891,0.006019519574124143
35.7,0.00951134108334688,0.0041112022714856365
35.800000000000004,0.009383565788869288,0.004056229518619268
35.9,0.03957494989847105,0.016855805984863415
36.0,0.13517925515059215,0.05506444600126202
36.1,0.04640735045903723,0.019700781680294596
36.2,0.03174022694994953,0.013570363760444206
36.300000000000004,0.03469195578918186,0.014811072678480738
36.4,0.023045791110672252,0.009895072990376624
36.5,0.02241056230356956,0.009625327440363596
36.6,0.030778215982763438,0.013165231785689256
36.7,0.031255266779022635,0.013366179572261322
36.800000000000004,0.02710579760002585,0.01161518064440021
36.9,0.031049639164002905,0.01327957459103998
37.0,0.025433317125930693,0.010907423899075489
37.1,0.039275262253496854,0.016730589948953132
37.2,0.032156935561193985,0.013745735146355634
37.300000000000004,0.04125997552027777,0.01755917508006216
37.4,0.012557106122842193,0.00541952588637151
37.5,0.015054821265071029,0.0064894983378729395
37.6,0.02468088980371685,0.010588636733327758
37.7,0.018128924850058993,0.007802775845279414
37.800000000000004,0.01795614439024138,0.007729068119022611
37.9,0.014834095756494525,0.00639504994716149
38.0,0.025701989978452883,0.011021198097735939
38.1,0.023406207369876315,0.01004804681462966
38.2,0.007189245995788466,0.003111080056894304
38.300000000000004,0.03585490591864014,0.015298927251012208
38.400000000000006,0.04150849386299199,0.017662816120332624
38.5,0.024716291966211827,0.010603641110182917
38.6,0.005505889282882635,0.0023846186180596202
38.7,0.012836757165934467,0.005539454072041058
38.800000000000004,0.02331254109463923,0.010008296608076053
38.900000000000006,0.02011509084362589,0.008649172250744538
39.0,0.015263551006518269,0.006578794850653423
