Frequency (Hz),Power,Log Power
0.0,0.5720173562925566,0.19645733667824417
1.0,0.5721369704757214,0.19649038071764688
2.0,0.5724947056868758,0.1965891919266255
3.0,0.5730872761891662,0.1967528183104301
4.0,0.5739093184731241,0.19697970666267012
5.0,0.5749535394302502,0.1972677467816948
6.0,0.5762109483876781,0.19761433979694443
7.0,0.5776711118650276,0.1980164734050394
8.0,0.579322487970516,0.19847081933441302
9.0,0.5811528680461457,0.19897386015325308
10.0,0.5831492114771227,0.19952184895413153
11.0,0.5852995453567567,0.20011133507382345
12.0,0.5875934944364354,0.2007393106079234
13.0,0.5900145714442259,0.20140110436373648
14.0,0.5925578486565545,0.2020952167662745
15.0,0.5952142754637368,0.20281902745666452
16.0,0.5979746978139224,0.2035698984530731
17.0,0.6008399526857865,0.20434791459270538
18.0,0.6038487462433145,0.2051634089797901
19.0,0.6068725526864932,0.20598143254434637
20.0,0.6103949358206524,0.20693239616487272
21.0,0.6128770988843806,0.20760127544235416
22.0,0.6166566787084153,0.20861780075153716
23.0,0.6198994959629569,0.2094880702816962
24.0,0.6245579316752073,0.21073520288215453
25.0,0.6277358077751258,0.21158391742282373
26.0,0.6317692074589814,0.21265873345280178
27.0,0.6370084501447456,0.21405092122120384
28.0,0.6414540312530718,0.21522872486452255
29.0,0.6467359557695955,0.21662396823756755
30.0,0.6527587156127038,0.2182094560357088
31.0,0.6587641632275391,0.21978464407765014
32.0,0.6669153513326489,0.2219135462092029
33.0,0.6746246494900927,0.2239174794787132
34.0,0.6839797301768964,0.22633685965454312
35.0,0.6966730370566112,0.22959815823792537
36.0,0.7092511630758882,0.23280588409190503
37.0,0.7230567854083276,0.23629959038076714
38.0,0.7419794932983493,0.24104303815741399
39.0,0.7587970775844676,0.2452157353249748
40.0,0.7830868460623498,0.2511724962023498
41.0,0.8043306698213033,0.2563161312762035
42.0,0.8383098448747366,0.26441871302311476
43.0,0.868072680771142,0.27139376924086
44.0,0.9051783808152541,0.27993564467142884
45.0,0.935651093852693,0.2868270773162196
46.0,0.969465136723878,0.2943482973754466
47.0,1.006482604921474,0.3024353989966639
48.0,1.041628351148847,0.30997668792959143
49.0,1.0693186163724369,0.315827364846045
50.0,1.0908034608117294,0.320313210294181
51.0,1.1146006882628003,0.32522836922556814
52.0,1.15167443906039,0.3327765606674127
53.0,1.158382686039248,0.334128448549209
54.0,1.022013738355322,0.305784102032251
55.0,1.1883502080050254,0.34011682462367754
56.0,1.1957276446978782,0.34157846977608436
57.0,1.202691729313824,0.3429537211063311
58.0,1.2011851914663267,0.3426565824209232
59.0,1.1938085628971102,0.34119872729301576
60.0,1.1544053723542183,0.3333274233875251
61.0,1.1848363163409845,0.3394189060329085
62.0,1.192290759991086,0.3408981534097135
63.0,1.1576609905123236,0.3339832098021678
64.0,1.1496084718550446,0.33235936503315405
65.0,1.12941089177549,0.3282594711203113
66.0,1.1080182776776515,0.3238743721288074
67.0,1.0886512288427,0.3198659258420442
68.0,1.0676626802076898,0.3154796891252306
69.0,1.0669662147438477,0.3153333779963102
70.0,1.0554495612149613,0.3129068240719601
71.0,1.0251346848545981,0.3064539119674888
72.0,0.8923219357533348,0.27699502372928014
73.0,1.001596306779598,0.3013764910170502
74.0,0.972964809729625,0.29511933914142846
75.0,0.961306577585985,0.2925454848188228
76.0,0.9583693415199922,0.29189460159245206
77.0,0.9199866717250353,0.28329821390336135
78.0,0.9188126135717605,0.2830325646961982
79.0,0.8892023549286646,0.2762784782617907
80.0,0.8963752801000463,0.2779242855068037
81.0,0.8699924775343347,0.2718398594927023
82.0,0.8419847295437889,0.26528602547952806
83.0,0.8334966018002642,0.2632801093766535
84.0,0.8085204898514714,0.25732343351733433
85.0,0.7862666253996714,0.2519462839463944
86.0,0.7881968175002401,0.2524153176199287
87.0,0.7927826269542653,0.25352763499596176
88.0,0.7742015475166415,0.24900295371578368
89.0,0.7586018234599422,0.24516751913379314
90.0,1.2055242003029247,0.343511827473918
91.0,0.74996855283889,0.24303024442843565
92.0,0.7313877899238169,0.2383943504647362
93.0,0.7123215908247247,0.23358533277369653
94.0,0.7107702449918949,0.23319168807284527
95.0,0.6970502861771143,0.22969471131335764
96.0,0.6846559762143881,0.22651122693675152
97.0,0.673384783336016,0.22359581547839683
98.0,0.686708763292535,0.22704010131233565
99.0,0.6611059725414832,0.22039733974935272
100.0,0.6231900685207805,0.2103693768050966
101.0,0.6463957790090467,0.21653424398575985
102.0,0.6132635337930995,0.20770531712458842
103.0,0.6133052008781062,0.20771653386074654
104.0,0.6094656307964014,0.20668170701427543
105.0,0.5995564461843371,0.20399957035563032
106.0,0.6090647576719533,0.20657352286450617
107.0,0.5920838976416609,0.20196594991092434
108.0,0.6814283342751896,0.22567836157506688
109.0,0.5675929783048759,0.19523330948182682
110.0,0.5537165363413733,0.19137178799641705
111.0,0.547454330400191,0.18961784066607254
112.0,0.5286445750099631,0.1843065193851629
113.0,0.5230540855425525,0.18271532594642578
114.0,0.5307813699544321,0.18491316809699923
115.0,0.5240820829976992,0.1830083575764054
116.0,0.5152640117765673,0.18048830865902143
117.0,0.5221536467056965,0.18245849247960264
118.0,0.4869302463136383,0.1722905957232832
119.0,0.473949918380922,0.16848272738984543
120.0,0.46336208738164325,0.16535179919113208
121.0,0.48317056410082515,0.17119109761525553
122.0,0.4835917359546643,0.1713144055144295
123.0,0.4661319693636828,0.1661730637477408
124.0,0.47584996837162985,0.1690422103189306
125.0,0.4620689968666465,0.16496786800583624
126.0,0.7085137149671564,0.23261846941552405
127.0,0.4434721357192326,0.15940840482901614
128.0,0.4538872383668586,0.16253072450507686
129.0,0.43745108514542935,0.15759307505706674
130.0,0.440280451537651,0.15844706618980564
131.0,0.4298535207244815,0.15529154907384493
132.0,0.4354523494327367,0.15698878044666734
133.0,0.43335598584921364,0.15635406443079128
134.0,0.4230613074955445,0.1532236105083699
135.0,0.41375615264134613,0.1503745079793977
136.0,0.40360978615666415,0.1472463875136038
137.0,0.40127700038916947,0.1465239938507034
138.0,0.4145312934682928,0.1506125597323994
139.0,0.3940979054746252,0.14429327470481032
140.0,0.4128908328839949,0.15010860734917159
141.0,0.3786913368606162,0.13946704666692986
142.0,0.39585634771493544,0.14484072587678784
143.0,0.34892916751465636,0.12998914539824008
144.0,0.26548316125353955,0.10225637073226308
145.0,0.38789464590740047,0.1423565003856795
146.0,0.39316866635224007,0.1440036982127365
147.0,0.3372287178702702,0.12620569478163401
148.0,0.37325603289730747,0.13775151561129598
149.0,0.3588078672150651,0.13315805268003317
150.0,0.3718233427410222,0.13729818847535322
151.0,0.3634545994920468,0.13464068131809684
152.0,0.35690130741719245,0.1325482609222092
153.0,0.34914348893714714,0.1300581417694939
154.0,0.34299923881285116,0.12807576651869887
155.0,0.35331634004874124,0.13139932555502232
156.0,0.35386731597422283,0.1315761039622573
157.0,0.35333235326650686,0.13140446434686512
158.0,0.3413606802834757,0.12754557158403035
159.0,0.33303221556179086,0.12484064519154425
160.0,0.341017151206148,0.1274343323829596
161.0,0.328785871206148,0.12345500167555686
162.0,0.1570792825913139,0.06336311764860243
163.0,0.34591880931344143,0.12901886246547778
164.0,0.3554331459492819,0.13207810173108295
165.0,0.32392424256331437,0.12186313466710458
166.0,0.33434683948838145,0.12526873130269717
167.0,0.3244003998870981,0.12201930321015302
168.0,0.3130111527645567,0.11826841501829434
169.0,0.3127757332077504,0.11819054014179672
170.0,0.2976558087311631,0.11315951512138497
171.0,0.3261728602729123,0.12260013596151362
172.0,0.30644906462064664,0.11609248227199102
173.0,0.30775065108729227,0.11652494492088282
174.0,0.3107285462835774,0.1175127580074207
175.0,0.30706960720717774,0.11629871628828932
176.0,0.30442798098882656,0.11542010618628819
177.0,0.299004630261438,0.11361069910490501
178.0,0.2870154219634379,0.10958375097081462
179.0,0.2983503030152575,0.11339188363633276
180.0,0.4426372361148729,0.15915713763535425
181.0,0.29328131768583604,0.11169300394442062
182.0,0.27913739871059645,0.10691719678272496
183.0,0.28778711377876487,0.10984407501703482
184.0,0.2742835906084086,0.10526609058218844
185.0,0.28473057834457394,0.10881206104758943
186.0,0.2764991165480907,0.10602051856962903
187.0,0.2733090056065991,0.10493381068020748
188.0,0.27539172314102733,0.10564359423674427
189.0,0.2837183791314236,0.10846975908800736
190.0,0.27394493824106825,0.10515065756382275
191.0,0.2715016278291249,0.10431692051389355
192.0,0.272285875251311,0.10458470572651908
193.0,0.2620516235892276,0.1010771198696014
194.0,0.2688518799212788,0.10341092746320975
195.0,0.27489886897565313,0.10547573583838653
196.0,0.269012090209065,0.10346575975118194
197.0,0.28456849113367894,0.1087572651056079
198.0,0.5722916507492553,0.19653310821914316
199.0,0.23648976309015396,0.09219052518428625
200.0,0.2504010823597226,0.0970493409409542
201.0,0.24085573739069063,0.09372129310466669
202.0,0.24471501234397727,0.09506992754882224
203.0,0.25139919686648443,0.09739587191642177
204.0,0.235018718853674,0.09167354013272874
205.0,0.2402032931897918,0.09349288022191038
206.0,0.23546793042846606,0.09183147671607034
207.0,0.23306027918531697,0.09098430796447225
208.0,0.2304118634050508,0.0900505098651189
209.0,0.24571361664176913,0.09541821165889983
210.0,0.23898623829528357,0.09306648259429455
211.0,0.22679501098058508,0.0887720011643705
212.0,0.24780672767172926,0.09614732284173308
213.0,0.22898646358585092,0.08954709946713356
214.0,0.24656472332796067,0.09571483258262643
215.0,0.23153761045214868,0.0904476794819932
216.0,0.5338612950991979,0.18578608875468144
217.0,0.19740520935738823,0.0782411432286126
218.0,0.21497016006974626,0.08456561169878359
219.0,0.21860534753172034,0.08586307958068931
220.0,0.21652141759350915,0.0851197593505171
221.0,0.21279604496180626,0.08378777201648759
222.0,0.22535845802000826,0.08826315283737954
223.0,0.2212204994112981,0.08679408575640438
224.0,0.2122795013060135,0.08360276164589456
225.0,0.22267246634819135,0.08731013233588032
226.0,0.22586116499545636,0.08844128691109718
227.0,0.20917809208318977,0.08249027001953074
228.0,0.21354905479372613,0.0840573363297866
229.0,0.21085835249503918,0.08309334188146184
230.0,0.20581599673594844,0.08128104105534824
231.0,0.19961745914248213,0.07904277782278596
232.0,0.20693864281278374,0.08168519241288262
233.0,0.17749340352694173,0.07095848283288815
234.0,0.25442518058960883,0.09844476319858883
235.0,0.21800975160525826,0.08565076535055113
236.0,0.22103726595987372,0.08672891878006685
237.0,0.2097354857320168,0.08269042019640206
238.0,0.21184420259294862,0.08344678954695292
239.0,0.19623453810303393,0.07781633735967171
240.0,0.18843091792316863,0.07497394177581991
241.0,0.21010371223690094,0.08282259322718051
242.0,0.21122118211692864,0.08322345726502757
243.0,0.20546698897648147,0.08115532197050046
244.0,0.2048363746818903,0.08092807064709556
245.0,0.200418194461671,0.07933256930398301
246.0,0.19932776735188498,0.07893788876960449
247.0,0.1990069869917596,0.07882171387710145
248.0,0.1950851001250855,0.07739883181036897
249.0,0.19141113124706308,0.07606165335607179
250.0,0.1839909134212443,0.07334836939183699
251.0,0.1874139430583794,0.07460214426812863
252.0,0.24400273424616092,0.09482133491003689
253.0,0.2307580265942717,0.09017267677811334
254.0,0.21840380929187322,0.08579124813482657
255.0,0.21492134199366483,0.08454816119036036
256.0,0.19958768380120714,0.07903199819733274
257.0,0.19091644072332578,0.07588129078097963
258.0,0.2022500052041172,0.07999478762575285
259.0,0.18707946673665427,0.07447979293102733
260.0,0.187368262353029,0.07458543631215662
261.0,0.19289456133428445,0.07660205854513862
262.0,0.1918367317883404,0.07621676602513451
263.0,0.19137626174894057,0.07604894250266798
264.0,0.19160444527896062,0.0761321146810743
265.0,0.18328556600959214,0.07308956692374165
266.0,0.19022443887680654,0.07562886338834134
267.0,0.19797959200244958,0.07844941975928989
268.0,0.20492239730648132,0.08095907719565876
269.0,0.22419447090538194,0.08785041366937255
270.0,0.5480980756313479,0.18979847078890844
271.0,0.19117837300050552,0.07597679977786306
272.0,0.1602804784045407,0.06456298534709623
273.0,0.18780547782963378,0.07474532379139612
274.0,0.1609937594386249,0.06482988532974246
275.0,0.1859027063644847,0.07404906017303071
276.0,0.17432428438998224,0.06978804194897231
277.0,0.17253635302440468,0.06912631635356399
278.0,0.18673030774463556,0.07435203389467634
279.0,0.18679527941687518,0.07437581020355068
280.0,0.17477428176733237,0.06995443035264354
281.0,0.18349425183460966,0.07316615292621476
282.0,0.1815447562693881,0.07245017711750516
283.0,0.16127548779824016,0.06493525904790402
284.0,0.17820974489307134,0.07122261043510063
285.0,0.1921354301392748,0.07632559535486821
286.0,0.1925374012775484,0.0764720086041745
287.0,0.23160352040056809,0.09047092161501545
288.0,0.6908545303505248,0.22810624545485622
289.0,0.10818928555697004,0.04461394690132664
290.0,0.13738753116505525,0.05590846290340522
291.0,0.1476625501739721,0.05981421023891617
292.0,0.14916622249539277,0.060382852266437616
293.0,0.14940811173077206,0.060474257759817206
294.0,0.15523463326371081,0.06267020031719905
295.0,0.15558070257931017,0.06280028080689735
296.0,0.15468687428518252,0.06246422907058364
297.0,0.160071148688226,0.06448462589512444
298.0,0.14569075530159709,0.05906740873957049
299.0,0.1486821843843899,0.06019988538044179
300.0,0.16089141490415787,0.06479159948590149
301.0,0.15500233484419543,0.0625828621579685
302.0,0.1638389228080819,0.0658928774132465
303.0,0.13849840630252214,0.05633242701571591
304.0,0.16924423432671556,0.06790523703145844
305.0,0.14943540958452667,0.06048457190877439
306.0,0.6178383682764026,0.20893513082876872
307.0,0.10695369857255409,0.04412945568000172
308.0,0.14610324777490877,0.05922374321525182
309.0,0.1336501951565022,0.05447906712372577
310.0,0.15619222140046146,0.06303004321396218
311.0,0.14493495443274199,0.05878081441970555
312.0,0.14630653293023396,0.05930076750836479
313.0,0.15733422960769516,0.06345879811560311
314.0,0.14043675484612642,0.05707120562938019
315.0,0.14763275820651103,0.05980293631958489
316.0,0.13064498653367249,0.05332626134225658
317.0,0.13294737083815283,0.05420973591330846
318.0,0.13622061868705784,0.05546266603679043
319.0,0.12735914291920847,0.05206229132658152
320.0,0.12493652682405804,0.05112801860050462
321.0,0.11341059633925185,0.046655350175308904
322.0,0.12039830150996084,0.04937244177469132
323.0,0.0570048019263851,0.02407696029266232
324.0,0.4603684471980738,0.1644624409883169
325.0,0.1969078884190064,0.07806072927808888
326.0,0.17766026424967413,0.07102002165495465
327.0,0.15392655684585424,0.062178168463051194
328.0,0.1572108952860129,0.06341251393232193
329.0,0.14156152745377698,0.05749932389769325
330.0,0.1515040933631985,0.061265486131678364
331.0,0.15097572577940774,0.061066164401970206
332.0,0.14227101191798924,0.05776915558841811
333.0,0.13700062556368153,0.05576070363125301
334.0,0.13881315435749192,0.05645247501151493
335.0,0.14061354840803383,0.057138525905848045
336.0,0.1435109074247859,0.058240311497908585
337.0,0.14761566134845688,0.059796466369711324
338.0,0.1251405924914701,0.051206793316966696
339.0,0.13880482636943375,0.056449299062528144
340.0,0.12209230322710879,0.05002858342048325
341.0,0.13710336229257652,0.05579994369654161
342.0,0.5716007254600358,0.1963422206126736
343.0,0.24853026397155134,0.09639907397334747
344.0,0.18044758590665552,0.07204670835090048
345.0,0.17575531951100914,0.07031695231631103
346.0,0.1513934138179146,0.061223740881910654
347.0,0.1455225709968294,0.059003650804160264
348.0,0.14798154694424723,0.05993490711709603
349.0,0.15047693271111318,0.060877915402135656
350.0,0.14779974951008543,0.05986612563275551
351.0,0.13984636738301207,0.05684631949954381
352.0,0.14507262742537194,0.058833033129854787
353.0,0.14766074094131165,0.0598135255948279
354.0,0.145400823766697,0.058957491119900125
355.0,0.1610960731760084,0.06486815627944757
356.0,0.14403419196975328,0.05843900449361712
357.0,0.17222186205868625,0.06900981675803182
358.0,0.16808520553742035,0.06747452338003161
359.0,0.2450055143003878,0.09517127498591292
360.0,0.8365010908929209,0.2639911906549772
361.0,0.19507671255478776,0.0773957837527207
362.0,0.11497807161063911,0.04726632615355658
363.0,0.14201196412720218,0.057670653758522115
364.0,0.11263913977866177,0.046354333234609565
365.0,0.145345835256507,0.05893664096918252
366.0,0.12938301477916084,0.05284125193003184
367.0,0.1216672113021316,0.04986402471592277
368.0,0.1375965550270849,0.05598826821780022
369.0,0.12333426474831102,0.05050900624801225
370.0,0.1367455616833372,0.05566326721829515
371.0,0.12739943764488443,0.052077813854947586
372.0,0.13369401883790719,0.05449585538454283
373.0,0.13245842631445232,0.05402226759115264
374.0,0.15251885740189985,0.061648040004061905
375.0,0.16706623431126408,0.06709550418558105
376.0,0.17726877006892727,0.07087562344890756
377.0,0.25116432771386826,0.09731435360430053
378.0,1.0071487966110944,0.30257956937426184
379.0,0.07079855745021958,0.029707777445945216
380.0,0.048783211373944146,0.020685726674007
381.0,0.06742098644896809,0.028335737168508696
382.0,0.08583022508308934,0.03576192647429701
383.0,0.11528053725034017,0.04738412339785017
384.0,0.09005198228071092,0.03744720902261365
385.0,0.1075253886382805,0.044353690668585265
386.0,0.11031700199176853,0.045446990102689655
387.0,0.10298821847406062,0.04257087356527636
388.0,0.10445851745506986,0.043149408773609926
389.0,0.1094742764123796,0.04511723740023407
390.0,0.1101621597815598,0.045386420187217336
391.0,0.08708206901742545,0.03626233228866091
392.0,0.1235317523257425,0.05058535060027178
393.0,0.0953658286937184,0.03955918844484084
394.0,0.12984391139195267,0.053018449586559
395.0,0.15812989368591926,0.06375727178120325
396.0,1.01970194459036,0.3052872836196403
397.0,0.170759764175964,0.0684677884998646
398.0,0.14259417616025719,0.057892006117047576
399.0,0.09029480937674497,0.037543944522400896
400.0,0.12350223428775076,0.05057394042926991
401.0,0.0927811503135558,0.03853319513557967
402.0,0.11195980714240603,0.04608908953764406
403.0,0.09815797890874033,0.04066482138281631
404.0,0.09021559080647355,0.03751238843539901
405.0,0.09987237228146198,0.041342293131251553
406.0,0.08843567036693534,0.03680276610081162
407.0,0.0940969927480604,0.03905582432654496
408.0,0.08104784610697208,0.03384491582231695
409.0,0.08906738947562895,0.03705475392647759
410.0,0.07437367277016486,0.031155357524833626
411.0,0.04605466890417264,0.019554382220538735
412.0,0.03089657779378426,0.013215097925204602
413.0,0.10776089889068605,0.04444603160349056
414.0,1.0689294707259511,0.31574568593078123
415.0,0.32651607864402793,0.12271251841488635
416.0,0.21483165205978708,0.0845160988009089
417.0,0.17225745795392483,0.06902300442042646
418.0,0.15283152954322166,0.061765845772089656
419.0,0.10537683707992636,0.043510359799067755
420.0,0.13722669139523178,0.05584704429102823
421.0,0.12739567263555132,0.052076363503409946
422.0,0.1291248625278645,0.052741970364673006
423.0,0.12728696849927124,0.052034486561864546
424.0,0.1159973301947578,0.04766315563823439
425.0,0.11314935323641676,0.04655343831029148
426.0,0.1113236751376966,0.04584056645981957
427.0,0.1514625175904018,0.061249805375715546
428.0,0.09194988195124555,0.03820270568418068
429.0,0.16089605448651603,0.06479333517019054
430.0,0.1144921118520829,0.04707699897934648
431.0,0.2764735802594609,0.10601183044753952
432.0,1.3954553736288007,0.37938808453781353
433.0,0.41495892210865304,0.15074383197303398
434.0,0.2207974103610695,0.08664359935663543
435.0,0.19334247171999602,0.0767650976803894
436.0,0.14451989439262777,0.05862334611484032
437.0,0.14526394316728794,0.05890558785589411
438.0,0.141579233032094,0.05750605973728337
439.0,0.12535898540607587,0.05129108290220306
440.0,0.1439386589289866,0.05840273704188387
441.0,0.1292694210264448,0.05279756823683245
442.0,0.13872059129941375,0.05641717399746829
