Frequency (Hz),Power,Log Power
0.0,0.005098967659111997,0.0022088269227661383
0.1,0.005098975236174811,0.002208830196748738
0.2,0.005098986468021736,0.002208835049931629
0.30000000000000004,0.005099005539238185,0.0022088432904373615
0.4,0.0050990351771188994,0.0022088560967060307
0.5,0.005099073795821046,0.0022088727835082997
0.6000000000000001,0.005099119209449395,0.0022088924063378215
0.7000000000000001,0.0050991747627034964,0.002208916410409292
0.8,0.0050992383344490595,0.0022089438791985045
0.9,0.005099306471081417,0.0022089733204330685
1.0,0.005099386915103776,0.002209008079579133
1.1,0.005099470655416052,0.002209044263019869
1.2000000000000002,0.005099566250372439,0.002209085568742538
1.3,0.005099671953464703,0.0022091312420955316
1.4000000000000001,0.005099784369704979,0.0022091798161339854
1.5,0.005099901646468013,0.0022092304903545247
1.6,0.0051000298444382995,0.0022092858835223326
1.7000000000000002,0.005100163181259608,0.002209343497133013
1.8,0.0051003017552675774,0.0022094033736757557
1.9000000000000001,0.00510045515135659,0.002209469654692459
2.0,0.005100613290384239,0.0022095379850780713
2.1,0.005100779857302157,0.002209609957064179
2.2,0.005100952120743965,0.0022096843904516232
2.3000000000000003,0.0051011312158864295,0.0022097617757381727
2.4000000000000004,0.005101315112348637,0.0022098412356144214
2.5,0.00510151029798575,0.0022099255734175705
2.6,0.005101710592763362,0.002210012118813364
2.7,0.0051019187834576,0.0022101020759384736
2.8000000000000003,0.00510213729116308,0.0022101964909213294
2.9000000000000004,0.005102355746892505,0.002210290883425369
3.0,0.00510258205989125,0.0022103886709541
3.1,0.0051028158694599755,0.0022104896976507366
3.2,0.0051030562028543565,0.0022105935432005946
3.3000000000000003,0.005103299938134538,0.0022106988586443593
3.4000000000000004,0.00510355565583738,0.002210809351539096
3.5,0.005103813206444855,0.002210920636384017
3.6,0.005104075880754163,0.0022110341350959056
3.7,0.005104345539821579,0.0022111506518150393
3.8000000000000003,0.005104618034975546,0.002211268393944211
3.9000000000000004,0.0051048975861715295,0.00221138918487757
4.0,0.005105181607679826,0.002211511907348299
4.1000000000000005,0.005105471118617852,0.0022116370017035655
4.2,0.005105764282929263,0.0022117636746029406
4.3,0.005106066125431553,0.002211894097209336
4.4,0.005106366789998074,0.00221202401080447
4.5,0.005106673086687467,0.002212156357933322
4.6000000000000005,0.0051069838942470434,0.0022122906541137723
4.7,0.005107294761812112,0.0022124249761803555
4.800000000000001,0.005107613475225422,0.0022125626882987938
4.9,0.00510793621408703,0.0022127021397190414
5.0,0.005108262275041475,0.002212843026528522
5.1000000000000005,0.005108590395671745,0.00221298480325168
5.2,0.005108917781301397,0.002213126262344306
5.300000000000001,0.005109248238609937,0.0022132690486229975
5.4,0.005109581598915425,0.0022134130892011187
5.5,0.005109919831441413,0.0022135592349523977
5.6000000000000005,0.005110262803269514,0.0022137074284425007
5.7,0.005110602493534698,0.0022138542039638388
5.800000000000001,0.005110941419710217,0.0022140006492829345
5.9,0.005111283289935818,0.0022141483666354906
6.0,0.005111636006769519,0.0022143007706033266
6.1000000000000005,0.005111970791292279,0.0022144454262231035
6.2,0.005112311681343461,0.002214592719905116
6.300000000000001,0.005112663752395335,0.002214744844684116
6.4,0.005113013568868643,0.0022148959952397636
6.5,0.005113343345717747,0.0022150384869202232
6.6000000000000005,0.005113700052128922,0.0022151926144119392
6.7,0.0051140479517264685,0.0022153429365589033
6.800000000000001,0.005114368801582188,0.0022154815708760084
6.9,0.005114732794709045,0.002215638846687281
7.0,0.005115051602708518,0.0022157765986558055
7.1000000000000005,0.005115397781303587,0.0022159261769826694
7.2,0.00511572756170473,0.0022160686698598146
7.300000000000001,0.005116093753864335,0.002216226895625212
7.4,0.005116405181775883,0.0022163614585909673
7.5,0.005116697064545605,0.0022164875763791138
7.6000000000000005,0.005117014035748074,0.0022166245344287768
7.7,0.005117425368373316,0.002216802264434585
7.800000000000001,0.005117748610673965,0.002216941932021075
7.9,0.005118071271529522,0.0022170813483300697
8.0,0.005118308778619627,0.0022171839711058005
8.1,0.005118677698950202,0.0022173433752606096
8.200000000000001,0.0051189464983608084,0.002217459518844151
8.3,0.005119161285287818,0.002217552324544011
8.4,0.005119662379302173,0.0022177688384852957
8.5,0.005119949046944276,0.0022178927025006926
8.6,0.0051203126218886475,0.0022180497967496837
8.700000000000001,0.005120596788348376,0.0022181725799691582
8.8,0.005120952482412814,0.0022183262689320408
8.9,0.005121015865634723,0.0022183536556685582
9.0,0.005121037541815121,0.0022183630215511624
9.1,0.0051212024852606685,0.002218434290602036
9.200000000000001,0.005121801366401089,0.002218693056108612
9.3,0.0051223942191615714,0.002218949216711394
9.4,0.005121884363604168,0.002218728917658616
9.5,0.005122483573227668,0.002218987824921062
9.600000000000001,0.005122417228513628,0.0022189591586195038
9.700000000000001,0.0051230053676295925,0.002219213282389499
9.8,0.00512278627919191,0.002219118618443432
9.9,0.0051234626548474224,0.0022194108674304627
10.0,0.005123867400619408,0.002219585750244764
10.100000000000001,0.005124091753367029,0.0022196826886944593
10.200000000000001,0.005124022249177121,0.0022196526572909143
10.3,0.005124119552991199,0.002219694700368742
10.4,0.005124762635847379,0.002219972563809708
10.5,0.0051239165606923,0.0022196069913559954
10.600000000000001,0.0051239518577965715,0.00221962224254754
10.700000000000001,0.005125092098574859,0.0022201149180988804
10.8,0.0051257073562010385,0.002220380758552292
10.9,0.0051246929185532345,0.002219942440348197
11.0,0.005125031710700297,0.0022200888257033627
11.100000000000001,0.00512541298182006,0.002220253565319633
11.200000000000001,0.005125008677633528,0.0022200788735744176
11.3,0.005125551145446649,0.0022203132630406403
11.4,0.005125351133893407,0.002220226842073163
11.5,0.005124924413187061,0.0022200424645851206
11.600000000000001,0.0051252030988202055,0.0022201628790858275
11.700000000000001,0.005125620492078032,0.002220343226320601
11.8,0.005124991957133866,0.002220071648979734
11.9,0.00512442193293064,0.0022198253528094396
12.0,0.0051239242483834884,0.0022196103130578014
12.100000000000001,0.005124490746721146,0.0022198550858930194
12.200000000000001,0.005127626952437717,0.0022212101764558204
12.3,0.00512698702742421,0.0022209336782448683
12.4,0.0051260385821592916,0.002220523874563714
12.5,0.005125121373174849,0.002220127567068833
12.600000000000001,0.0051244410144658395,0.002219833597565119
12.700000000000001,0.005121504160755957,0.00221856463904452
12.8,0.005127470744341239,0.002221142682221484
12.9,0.00512302004892851,0.002219219625898696
13.0,0.005126576156264402,0.002220756149319438
13.100000000000001,0.00512472584782358,0.0022199566684337345
13.200000000000001,0.0051196712159463035,0.0022177726566433623
13.3,0.005121388417136877,0.0022185146283564675
13.4,0.005121566726026611,0.002218591672344359
13.5,0.005124361445959648,0.002219799217578871
13.600000000000001,0.005121515665922259,0.0022185696102148917
13.700000000000001,0.005124737302602838,0.002219961617816936
13.8,0.005116603726069488,0.0022164472463486783
13.9,0.005115483206871071,0.0022159630880190418
14.0,0.005118314743526745,0.002217186548440495
14.100000000000001,0.005127247541485571,0.002221046240942057
14.200000000000001,0.00511503723195001,0.002215770389275906
14.3,0.00512030099465943,0.0022180447728322103
14.4,0.0051152652733697035,0.0022158689223943434
14.5,0.005112179413926688,0.002214535569064993
14.600000000000001,0.0051191577561529,0.0022175507996662538
14.700000000000001,0.005113254407139865,0.0022150000578857795
14.8,0.00512088855899457,0.0022182986487848675
14.9,0.0051105514512284796,0.0022138321492839725
15.0,0.005110335670117696,0.0022137389132159354
15.100000000000001,0.00510389940102782,0.002210957880128976
15.200000000000001,0.005120516393524938,0.00221813784281452
15.3,0.00511459282949662,0.0022155783698863613
15.4,0.0051091675763875145,0.002213234195536551
15.5,0.005101902295807442,0.0022100949517897704
15.600000000000001,0.005099586635681089,0.002209094377051008
15.700000000000001,0.005109635414425159,0.002213436342166431
15.8,0.005109677668125729,0.0022134545994270836
15.9,0.0051133335053627485,0.0022150342350496107
16.0,0.005108882017462548,0.0022131108092547603
16.1,0.005104536747474524,0.0022112332705212343
16.2,0.00509117697774493,0.0022054606243718717
16.3,0.005112802386223638,0.0022148047463296785
16.400000000000002,0.005108706897614207,0.002213035142238163
16.5,0.0051025453370381205,0.002210372803386867
16.6,0.005098844853465186,0.0022087738595159413
16.7,0.00510825305765703,0.0022128390438139705
16.8,0.0050783458271872394,0.0021999163179633845
16.900000000000002,0.00509073431282859,0.0022052693512046107
17.0,0.00510306021764271,0.002210595277948471
17.1,0.005116235609640597,0.0022162881892179432
17.2,0.005115066459713406,0.0022157830181350614
17.3,0.005122563104341027,0.0022190221888148385
17.400000000000002,0.005098963996088391,0.0022088253400056167
17.5,0.005105036837889017,0.0022114493539688333
17.6,0.005142252455931683,0.0022275295025599483
17.7,0.004971270737653474,0.0021536466933784193
17.8,0.005005038688193025,0.0021682391385899544
17.900000000000002,0.005137181347573064,0.0022253384097792824
18.0,0.005049295210472413,0.0021873633613466365
18.1,0.005181073701961435,0.0022443027774994395
18.2,0.005112403391497549,0.0022146323465335
18.3,0.005106576975388935,0.002212114829397311
18.400000000000002,0.005155484122404231,0.002233246506196684
18.5,0.005183010797029667,0.002245139710177949
18.6,0.00514644431741252,0.0022293406875036298
18.7,0.005002173286954615,0.0021670009062702807
18.8,0.005029847808575673,0.0021789598123016568
18.900000000000002,0.005238429205367782,0.0022690828580814774
19.0,0.005260782759499757,0.0022787401861252307
19.1,0.0056655328025638834,0.0024535657988453796
19.200000000000003,0.004934500735904913,0.0021377563873875823
19.3,0.0050620859921112656,0.002192890384313674
19.400000000000002,0.0047849318645610105,0.0020731135973986667
19.5,0.004705663996115978,0.0020388505877119026
19.6,0.004900771353021138,0.002123179585926043
19.700000000000003,0.004862103169207872,0.0021064677846779154
19.8,0.005228698131320185,0.002264878709001431
19.900000000000002,0.005807042285379062,0.00251467206336637
20.0,0.00668305962197492,0.002892760401791946
20.1,0.006057794732772161,0.0026229302353734723
20.200000000000003,0.006064662445942499,0.002625894875942403
20.3,0.005973641548051564,0.002586601514935948
20.400000000000002,0.0067581136270943466,0.0029251383433144696
20.5,0.0033198297754436475,0.0014393957976270805
20.6,0.005236885108282016,0.002268415759272465
20.700000000000003,0.00769214306705171,0.0033278723988512497
20.8,0.004178038903391853,0.0018107192417090513
20.900000000000002,0.00591319898903465,0.0025605067373051568
21.0,0.004628275009196147,0.0020053971041036497
21.1,0.005266764192038176,0.0022813242871481112
21.200000000000003,0.005206798860830654,0.002255417343694379
21.3,0.0049755303924252,0.0021554874829566983
21.400000000000002,0.005390683700239275,0.002334856586980204
21.5,0.005236170278341351,0.0022681069297680275
21.6,0.004184270008573229,0.0018134141086505744
21.700000000000003,0.004667221711358704,0.00202223319204322
21.8,0.005734626967993608,0.002483402939549481
21.900000000000002,0.005442688934549479,0.0023573204933420456
22.0,0.004510272930436705,0.0019543825518520664
22.1,0.0047285904325510015,0.0020487606654483164
22.200000000000003,0.005270479949601475,0.0022829295625645066
22.3,0.0060699096471599654,0.0026281599635422283
22.400000000000002,0.006059445527235286,0.0026236428488452396
22.5,0.005012137771527917,0.002171306866323891
22.6,0.005735476206470458,0.002483769655996069
22.700000000000003,0.005125330658824264,0.0022202179952068965
22.8,0.004894725111408265,0.0021205665346246765
22.900000000000002,0.004726989761738386,0.00204806877406431
23.0,0.005100862134293047,0.0022096455081674466
23.1,0.005241902038608277,0.0022705832282064646
23.200000000000003,0.0057375995182771524,0.0024846865388637503
23.3,0.0059875250081372604,0.0025925951794312768
23.400000000000002,0.004105590124569929,0.0017793849177899922
23.5,0.004721176334265484,0.0020455559055912046
23.6,0.004764389788917388,0.0020642346811132668
23.700000000000003,0.005415041791739364,0.0023453783242067955
23.8,0.005476734013815611,0.0023720257966911994
23.900000000000002,0.005548604970031226,0.002403067831917538
24.0,0.005502168349572252,0.002383011482973227
24.1,0.003954377791482424,0.0017139778253435164
24.200000000000003,0.004712119149636691,0.0020416408860534016
24.3,0.004236880141690763,0.0018361665980959811
24.400000000000002,0.0047438036771405125,0.0020553365489455154
24.5,0.005072087038763411,0.002197211886263744
24.6,0.004881321557743599,0.0021147737604455515
24.700000000000003,0.004746739398227105,0.0020566054949205503
24.8,0.005091877453037027,0.0022057632958658413
24.900000000000002,0.008760022181424422,0.0037878625320771683
25.0,0.006158374715942918,0.002666346377615541
25.1,0.0050258675433996905,0.0021772398528106837
25.200000000000003,0.006419023821585945,0.0027788374241799994
25.3,0.0052524000619107135,0.002275118663682626
25.400000000000002,0.00500170321770795,0.0021667977738461953
25.5,0.004629109018728051,0.002005757641026823
25.6,0.005343861928540152,0.002314630707706638
25.700000000000003,0.005314278843075038,0.0023018510406756696
25.8,0.004824830256710968,0.00209035838977219
25.900000000000002,0.006357132622264852,0.0027521290331192793
26.0,0.006036888651719287,0.0026139054159006747
26.1,0.004716012027939336,0.002043323609151891
26.200000000000003,0.0039621337932752776,0.0017173329337466096
26.3,0.005895075977389582,0.0025526822104343662
26.400000000000002,0.00510843079089274,0.0022129158400760103
26.5,0.006519654017616504,0.002822259649969999
26.6,0.005070364840763563,0.0021964677190158557
26.700000000000003,0.004679293357678151,0.0020274514551399713
26.8,0.00508612540992662,0.0022032778636513783
26.900000000000002,0.0049120309871752395,0.0021280457077616274
27.0,0.004693565491712666,0.0020336208517543627
27.1,0.004901379873155691,0.002123442573938451
27.200000000000003,0.00598737449165816,0.00259253020001597
27.3,0.004371512003540038,0.001894385885644268
27.400000000000002,0.006630808082690985,0.002870217910478396
27.5,0.006158295927182888,0.0026663123695250786
27.6,0.004577207484950886,0.0019833203735927897
27.700000000000003,0.0044012929608613005,0.0019072631064024636
27.8,0.00517060741315216,0.002239780731413004
27.900000000000002,0.005029873714271609,0.0021789710066961515
28.0,0.0045279288281652634,0.001962015914871271
28.1,0.0075202173158990925,0.003253769632639869
28.200000000000003,0.005508909287561037,0.0023859230056435927
28.3,0.006300013885751278,0.0027274786825805526
28.400000000000002,0.0039709147603679655,0.001721131392621365
28.5,0.0050319562068160675,0.002179870894457989
28.6,0.005386843119270144,0.0023331975838334087
28.700000000000003,0.005869765146991814,0.0025417541399661535
28.8,0.006497324153581117,0.0028126246227071624
28.900000000000002,0.008752202930298963,0.003784496150873468
29.0,0.0077539703843305646,0.003354517877045151
29.1,0.004445487026884548,0.0019263718201193425
29.200000000000003,0.006168343896114512,0.0026706494163791926
29.3,0.004068085368803235,0.0017631631052294349
29.400000000000002,0.003213396373282423,0.001393322860792763
29.5,0.00430190165221712,0.0018642850327435772
29.6,0.005715192453923368,0.0024750106822453662
29.700000000000003,0.00520111905504382,0.0022529634055761328
29.8,0.0049852306599215595,0.002159679378369106
29.900000000000002,0.002367539351577218,0.0010269940308333951
30.0,0.004153169599427395,0.0017999634446220622
30.1,0.006963062593724332,0.003013540061126737
30.200000000000003,0.004403742233939705,0.0019083221497282854
30.3,0.0038642738762865512,0.001674998574741239
30.400000000000002,0.006101457356169317,0.0026417780839123506
30.5,0.004589479887231688,0.0019886258931635023
30.6,0.0008181025720093036,0.00035515217700004653
30.700000000000003,0.007882631149864771,0.003409961066102451
30.8,0.005782870813594847,0.0025042350088279952
30.900000000000002,0.0026978198015048752,0.0011700706418043597
31.0,0.004902538628951282,0.0021239433603517355
31.1,0.0042488145139974905,0.001841327732229619
31.200000000000003,0.005983374332507646,0.0025908032891781706
31.3,0.0028939803019720307,0.0012550245423812887
31.400000000000002,0.005028239630013597,0.0021782648840507784
31.5,0.0019818603238043703,0.0008598592232575277
31.6,0.007888357050000272,0.0034124283372829367
31.700000000000003,0.004083526315098771,0.0017698418019299748
31.8,0.005182671351631317,0.002244993051025667
31.900000000000002,0.009017257815816209,0.00389859429447532
32.0,0.001348655001546868,0.0005853188172463309
32.1,0.0033148922895761203,0.0014372585647334662
32.2,0.0031023581599014926,0.0013452513812243175
32.300000000000004,0.007064094095893498,0.003057111890614294
32.4,0.00720279155348732,0.0031169207878477007
32.5,0.00826420436396011,0.0035743490366442923
32.6,0.005096785267147946,0.0022078839292432933
32.7,0.003295360421389916,0.0014288039258086279
32.800000000000004,0.004467298616390687,0.0019358024465080078
32.9,0.004753027406718339,0.0020593234324242232
33.0,0.007391848354489033,0.0031984322979608073
33.1,0.00919650997611307,0.00397573996212777
33.2,0.003248913745750429,0.0014086981796297676
33.300000000000004,0.003569259987517882,0.0015473501094365335
33.4,0.005238532389032856,0.0022691274366538868
33.5,0.0023202688296902097,0.0010065127102684237
33.6,0.0023475275580027966,0.0010183234604704298
33.7,0.006196923382864904,0.0026829850629877107
33.800000000000004,0.007159192807868918,0.003098121093661703
33.9,0.0039290952633983306,0.0017030408734901186
34.0,0.005020025430820989,0.002174715336067643
34.1,0.007252823258662671,0.0031384933589408775
34.2,0.0031667164349271416,0.0013731144869981132
34.300000000000004,0.010007331742158832,0.004324526380271557
34.4,0.014984215844168765,0.006459288529941104
34.5,0.005832453468781254,0.0025256441453463353
34.6,0.00768310485628238,0.0033239770993853225
34.7,0.008356446757122637,0.0036140792281939525
34.800000000000004,0.00674640298503036,0.0029200865868509846
34.9,0.012567050171976358,0.005423790953926342
35.0,0.003676979831045544,0.0015939633577291043
35.1,0.012947311516697873,0.005586856107901481
35.2,0.014546982857061474,0.006272163664192741
35.300000000000004,0.009566929842883133,0.004135116046276964
35.4,0.011244165768850886,0.004856029026555353
35.5,0.00968630021931474,0.004186463638620107
35.6,0.012329269625737688,0.005321793850568146
35.7,0.00746322504776447,0.003229202256999725
35.800000000000004,0.013302997308533637,0.005739327278516032
35.9,0.007512083004712363,0.0032502633002978094
36.0,0.01779919331621518,0.007662102325785163
36.1,0.01772768172367743,0.007631587287713305
36.2,0.015271772914824669,0.00658231188319764
36.300000000000004,0.007772517740662416,0.003362510840230222
36.4,0.014777559105400094,0.006370854623348516
36.5,0.00951171649257626,0.004111363773511193
36.6,0.006849403666750354,0.0029645171797182362
36.7,0.0450800631858489,0.019149562856534314
36.800000000000004,0.008993810159697595,0.0038885019933695576
36.9,0.009568146526841657,0.004135639437837606
37.0,0.012003688863791358,0.005182095557406036
37.1,0.012855726138199648,0.005547587705403749
37.2,0.006422358116347892,0.00278027625172906
37.300000000000004,0.01541295296859998,0.00664269911872143
37.4,0.019956222127299934,0.008581531667253003
37.5,0.018106993581480935,0.007793420712272816
37.6,0.013609090861376058,0.005870496994984727
37.7,0.012495669445903648,0.005393174365946028
37.800000000000004,0.009294093615070503,0.004017731771136793
37.9,0.015409803607906298,0.006641352127738188
38.0,0.014957680865416195,0.006447934515455212
38.1,0.011405632465440066,0.004925367866674909
38.2,0.028623868332683978,0.01225659753213549
