Frequency (Hz),Power,Log Power
0.0,0.0013458611443276907,0.0005841070929781389
0.1,0.00134586253575976,0.000584107696457214
0.2,0.001345866783247932,0.000584109538638548
0.30000000000000004,0.0013458738125172464,0.0005841125873082449
0.4,0.0013458836510575355,0.0005841168543890889
0.5,0.0013458963263203601,0.000584122351786904
0.6000000000000001,0.0013459117665195644,0.0005841290483672264
0.7000000000000001,0.0013459300243576847,0.000584136966987741
0.8,0.0013459510385651567,0.000584146081075074
0.9,0.0013459748585492625,0.0005841564120576544
1.0,0.0013460014239211303,0.0005841679337439317
1.1,0.001346030756801639,0.0005841806557281057
1.2000000000000002,0.0013460627784036444,0.000584194543839125
1.3,0.0013460975593912058,0.0005842096287246694
1.4000000000000001,0.0013461350385053682,0.000584225883815838
1.5,0.0013461752028606747,0.0005842433035241266
1.6,0.0013462179971281654,0.000584261863852492
1.7000000000000002,0.001346263474270657,0.0005842815877713877
1.8,0.0013463115953284066,0.0005843024583834111
1.9000000000000001,0.001346362275718478,0.0005843244390037577
2.0,0.001346415542802712,0.0005843475414995916
2.1,0.0013464713599738887,0.0005843717499936308
2.2,0.0013465297221696136,0.0005843970622901726
2.3000000000000003,0.0013465905672549448,0.0005844234514404411
2.4000000000000004,0.0013466538493102508,0.0005844508975283818
2.5,0.0013467195511629895,0.0005844793931058126
2.6,0.0013467876686290463,0.0005845089363579848
2.7,0.0013468581962422673,0.0005845395249138964
2.8000000000000003,0.0013469310135388922,0.0005845711065269087
2.9000000000000004,0.0013470061431027065,0.0005846036909915933
3.0,0.0013470834712960226,0.0005846372290220544
3.1,0.0013471630467373596,0.0005846717417042897
3.2,0.0013472449375814852,0.000584707258597503
3.3000000000000003,0.0013473290270291588,0.0005847437290444354
3.4000000000000004,0.0013474148011331747,0.0005847809301407984
3.5,0.0013475029441986526,0.0005848191586763893
3.6,0.0013475932058657685,0.0005848583060673163
3.7,0.0013476850319505272,0.0005848981319582833
3.8000000000000003,0.0013477787863389048,0.0005849387941700919
3.9000000000000004,0.0013478750615417941,0.0005849805496802638
4.0,0.001347972280187595,0.0005850227143668938
4.1000000000000005,0.0013480716440845799,0.0005850658094658729
4.2,0.0013481736513418431,0.0005851100510118056
4.3,0.0013482758225094728,0.0005851543636426869
4.4,0.0013483794650944693,0.000585199314437026
4.5,0.0013484856390134127,0.0005852453630906619
4.6000000000000005,0.0013485957876169024,0.0005852931355982109
4.7,0.0013487029258605122,0.0005853396024786832
4.800000000000001,0.0013488093568947174,0.0005853857626307545
4.9,0.0013489271670551893,0.0005854368580124399
5.0,0.0013490387329981235,0.0005854852452123145
5.1000000000000005,0.00134915316716771,0.000585534876383446
5.2,0.001349266697648197,0.0005855841156106321
5.300000000000001,0.001349385464263443,0.0005856356257922203
5.4,0.0013495000815555679,0.0005856853363681333
5.5,0.0013496155468974407,0.00058573541474533
5.6000000000000005,0.0013497421102389555,0.0005857903064199639
5.7,0.0013498608296139318,0.0005858417960885898
5.800000000000001,0.0013499739665271606,0.000585890864587356
5.9,0.001350103982732453,0.0005859472537801963
6.0,0.0013502231759233195,0.0005859989489283664
6.1000000000000005,0.0013503374155850148,0.0005860484956810665
6.2,0.001350466413643596,0.0005861044432743901
6.300000000000001,0.001350595571705665,0.0005861604602553513
6.4,0.001350708292155333,0.000586209348094174
6.5,0.001350848371474903,0.0005862701017049906
6.6000000000000005,0.001350953766775712,0.0005863158125517718
6.7,0.0013510944233145097,0.0005863768164926486
6.800000000000001,0.0013512052179843691,0.0005864248690800617
6.9,0.0013513395102171645,0.000586483112752703
7.0,0.0013514697817061465,0.0005865396125873553
7.1000000000000005,0.0013515504746251259,0.0005865746097777542
7.2,0.0013517106544195375,0.0005866440810791008
7.300000000000001,0.0013518277486022317,0.0005866948657872505
7.4,0.0013519584837102282,0.0005867515666697448
7.5,0.0013520509547277559,0.0005867916720996548
7.6000000000000005,0.0013522052625737615,0.0005868585966551388
7.7,0.0013523230661131845,0.0005869096889918988
7.800000000000001,0.0013524192505406081,0.000586951404942477
7.9,0.0013525609689918876,0.0005870128693539034
8.0,0.001352698175472457,0.0005870723768796795
8.1,0.0013526949036757347,0.0005870709578758504
8.200000000000001,0.0013529626069628757,0.000587187062866053
8.3,0.0013531025444883113,0.0005872477548429963
8.4,0.0013530821311872835,0.0005872389014384669
8.5,0.0013533233989914413,0.0005873435411157823
8.6,0.0013534028799793876,0.0005873780126177362
8.700000000000001,0.0013534543225406828,0.0005874003236418751
8.8,0.001353511577769848,0.0005874251556622711
8.9,0.0013539106687972158,0.0005875982443810965
9.0,0.0013540030244106503,0.0005876382996812121
9.1,0.0013538518353018694,0.0005875727278650221
9.200000000000001,0.001353891665092702,0.0005875900023360595
9.3,0.0013541957607640564,0.0005877218908253007
9.4,0.0013540671951408423,0.0005876661309907043
9.5,0.0013542244490467054,0.0005877343331386394
9.600000000000001,0.0013542615337656938,0.0005877504170458809
9.700000000000001,0.0013543276056691984,0.0005877790729005132
9.8,0.0013549506047314125,0.0005880492719333416
9.9,0.001354891537251138,0.0005880236539629412
10.0,0.0013545627783640634,0.0005878810689561239
10.100000000000001,0.0013546828428308488,0.0005879331417525356
10.200000000000001,0.0013539560944739954,0.0005876179458274111
10.3,0.0013547667471207727,0.0005879695316244117
10.4,0.0013558664623196488,0.0005884464854435304
10.5,0.0013548406690831946,0.0005880015920891063
10.600000000000001,0.0013562674660506126,0.0005886204033068086
10.700000000000001,0.001354151772487552,0.0005877028127944839
10.8,0.0013522663890365,0.0005868851076913532
10.9,0.0013530227546572336,0.0005872131493829554
11.0,0.001356447279665371,0.0005886983895902545
11.100000000000001,0.0013552341107272029,0.0005881722304028177
11.200000000000001,0.0013556611947163604,0.0005883574595541586
11.3,0.0013558418835274801,0.0005884358254631229
11.4,0.0013550800893832636,0.0005881054303076893
11.5,0.001355331534242763,0.00058821448363292
11.600000000000001,0.0013557104663698303,0.0005883788289911119
11.700000000000001,0.0013555209115840888,0.0005882966178404134
11.8,0.0013566286883463059,0.0005887770676495913
11.9,0.0013551531874540597,0.000588137133435
12.0,0.0013548090897058751,0.0005879878958958275
12.100000000000001,0.0013584898218003765,0.0005895842518383908
12.200000000000001,0.001354894661293101,0.0005880250088813361
12.3,0.0013560355912798365,0.0005885198377555196
12.4,0.0013542080224097607,0.0005877272087887706
12.5,0.0013562109934020664,0.0005885959107649079
12.600000000000001,0.00135193500330219,0.0005867413830258347
12.700000000000001,0.0013578367338612392,0.0005893010040469111
12.8,0.0013547491064337632,0.0005879618807365302
12.9,0.0013501123922420248,0.0005859509010595602
13.0,0.0013569682191914996,0.0005889243242245154
13.100000000000001,0.0013585748514766678,0.0005896211296578475
13.200000000000001,0.001353519111365623,0.0005874284230388886
13.3,0.0013562448000735052,0.0005886105729305374
13.4,0.0013547327583032424,0.0005879547904391255
13.5,0.0013541546051595277,0.0005877040413446031
13.600000000000001,0.0013542599286606833,0.0005877497209004259
13.700000000000001,0.0013539666451218286,0.0005876225217199975
13.8,0.0013540594322297313,0.0005876627641601072
13.9,0.0013583899014747954,0.0005895409158616844
14.0,0.0013490203306058682,0.0005854772639218913
14.100000000000001,0.0013533520449641138,0.0005873559650897279
14.200000000000001,0.0013568308763306982,0.0005888647578036602
14.3,0.0013510346002427694,0.0005863508707170791
14.4,0.0013555685580141598,0.0005883172824103543
14.5,0.0013557192969174303,0.0005883826588570121
14.600000000000001,0.0013505460007499652,0.0005861389608991937
14.700000000000001,0.001356806274358768,0.000588854087780256
14.8,0.0013558423074817318,0.0005884360093347938
14.9,0.001349631826465754,0.0005857424753428868
15.0,0.0013528310959823552,0.0005871300255385115
15.100000000000001,0.001350604994198598,0.0005861645468726839
15.200000000000001,0.0013454591275205501,0.0005839327339251764
15.3,0.0013531074927441154,0.0005872499009392938
15.4,0.001342496126694162,0.0005826476461455883
15.5,0.0013553870322040424,0.0005882385534680115
15.600000000000001,0.001354955834035379,0.000588051539918147
15.700000000000001,0.0013561876770516348,0.0005885857983170834
15.8,0.0013601237418798089,0.0005902928910546779
15.9,0.001348357537671149,0.0005851898043012908
16.0,0.0013561654131905138,0.0005885761423403245
16.1,0.00136253478904412,0.0005913385720175765
16.2,0.0013449358900176572,0.000583705800035853
16.3,0.0013419184779496747,0.0005823971127511715
16.400000000000002,0.0013544526801032588,0.0005878333185672922
16.5,0.0013316662258493431,0.0005779505603540913
16.6,0.0013452756673913338,0.0005838531652524657
16.7,0.001338002889711287,0.0005806988699643344
16.8,0.0013389619371729975,0.0005811148222401108
16.900000000000002,0.0013468048851435616,0.0005845164033387002
17.0,0.001354999381426466,0.0005880704267185795
17.1,0.0013249708404041887,0.0005750466487206661
17.2,0.0013489346984568687,0.0005854401244523516
17.3,0.0013386420204979737,0.0005809760699552574
17.400000000000002,0.001315819930609354,0.0005710776996743648
17.5,0.0013259674920496857,0.0005754789160736106
17.6,0.0013189393977763215,0.0005724306846565809
17.7,0.0013870983505484635,0.0006019917450765107
17.8,0.0012747376624145704,0.0005532589775037642
17.900000000000002,0.0013673048075900744,0.000593407341046944
18.0,0.0013805944281345792,0.0005991710308966166
18.1,0.0017083408770352613,0.0007412900082244695
18.2,0.0014242022381823927,0.0006180831398610967
18.3,0.0013344253283656602,0.0005791472281389617
18.400000000000002,0.001261224581121614,0.0005473977527869819
18.5,0.0013351031825007767,0.0005794412240342313
18.6,0.0012925745359283266,0.0005609955022082756
18.7,0.0012168910246939516,0.0005281677609355735
18.8,0.0016517419670472311,0.000716750641081628
18.900000000000002,0.0013061358293692516,0.0005668774543722778
19.0,0.001382285346504172,0.00059990437434397
19.1,0.001217300620854081,0.00052834543004738
19.200000000000003,0.001384890116232524,0.0006010340484603753
19.3,0.0010248834862033216,0.00044487330991822117
19.400000000000002,0.000997803056223669,0.00043312431088093147
19.5,0.0013153585516183716,0.0005708775885884936
19.6,0.0009018228471898676,0.00039148018981919713
19.700000000000003,0.0009141783742383483,0.00039684125918321806
19.8,0.0003282107263179674,0.00014251672086229935
19.900000000000002,0.002513063087775721,0.001090040334589375
20.0,0.0019070040089955492,0.0008274126289868483
20.1,0.0013657196385559102,0.0005927198503469268
20.200000000000003,0.0015115942892212422,0.0006559813946312153
20.3,0.0015315949453251294,0.0006646543724555291
20.400000000000002,0.00148300454624938,0.0006435835902439211
20.5,0.0015749501886598855,0.000683454114277092
20.6,0.0013167967767335172,0.0005715013808606939
20.700000000000003,0.001402109881841487,0.000608502090927036
20.8,0.001631576881151023,0.0007080074089589207
20.900000000000002,0.0018513853229878828,0.000803303047154381
21.0,0.0015491608030657274,0.000672271394450216
21.1,0.001442318986678197,0.0006259398830025941
21.200000000000003,0.001591585955361318,0.0006906675152104744
21.3,0.0012075211392470796,0.0005241033982350901
21.400000000000002,0.0018462677585957203,0.0008010846186675973
21.5,0.0022047650099116063,0.0009564632763353905
21.6,0.0015114549227411376,0.0006559209598865345
21.700000000000003,0.0017204495156732252,0.0007465397230824369
21.8,0.0016634749957285555,0.0007218377981792334
21.900000000000002,0.0036290716350596617,0.0015732328217519312
22.0,0.0026584091221253017,0.0011530005169677645
22.1,0.002046620143194754,0.0008879275191866553
22.200000000000003,0.0008629051949675554,0.000374593368531874
22.3,0.004240054968070398,0.001837539588299201
22.400000000000002,0.0036980778891072042,0.001603092464081284
22.5,0.0018264218619209755,0.00079248145363054
22.6,0.0016789697168867492,0.0007285558427308276
22.700000000000003,0.001604162296326285,0.000696120637291534
22.8,0.0020212800797696677,0.0008769448077565902
22.900000000000002,0.002106988494055121,0.0009140908247888042
23.0,0.0015252400128800598,0.0006618986722221216
23.1,0.001953618840501095,0.0008476181900628861
23.200000000000003,0.001596087612490677,0.0006926194489973739
23.3,0.00149016656791044,0.0006466893996791578
23.400000000000002,0.0013509134952643315,0.0005862983464521087
23.5,0.0017146354904527686,0.0007440190533688477
23.6,0.0014023342244120951,0.0006085993852392389
23.700000000000003,0.0010087156843441901,0.00043785885508092984
23.8,0.0011620510712658536,0.0005043793673733651
23.900000000000002,0.001004903889016804,0.0004362050784426067
24.0,0.0016332042061538196,0.0007087129954351873
24.1,0.003085841991990376,0.0013381006257911078
24.200000000000003,0.0015168194290603298,0.0006582472131125966
24.3,0.002141058760422112,0.000928855991906493
24.400000000000002,0.0020533818955412704,0.0008908581032184885
24.5,0.0013814134975199928,0.0005995262576414611
24.6,0.00097716535239439,0.00042417031192097405
24.700000000000003,0.0010054388480735012,0.00043643717491230623
24.8,0.0052171381729089516,0.002259884367887233
24.900000000000002,0.004206913323905681,0.0018232068890440944
25.0,0.0022236643805417025,0.0009646530348281973
25.1,0.0023735197784006236,0.0010295851548661652
25.200000000000003,0.0021025542928242314,0.0009121691204108936
25.3,0.0019469114519967971,0.000844710878276284
25.400000000000002,0.002561689110184384,0.0011111048990800115
25.5,0.0014416763526885722,0.0006256611924781236
25.6,0.002363977504911715,0.001025450791412895
25.700000000000003,0.0014857729510813957,0.0006447841111464323
25.8,0.0020109678392022873,0.0008724752697247546
25.900000000000002,0.0015159517394541437,0.0006578709508632849
26.0,0.0025143004147521893,0.0010905763514916446
26.1,0.0017492259781339335,0.0007590155384232929
26.200000000000003,0.002634804745900385,0.0011427763260386343
26.3,0.0023774487993148325,0.0010312874631618638
26.400000000000002,0.0016645784979430628,0.0007223162469502045
26.5,0.0018561484893440253,0.0008053678363813436
26.6,0.0020921095753788977,0.0009076425310198645
26.700000000000003,0.0009304284228663294,0.0004038920626531881
26.8,0.0012654703917183232,0.0005492393583126083
26.900000000000002,0.0011392837151533296,0.0004945029946658367
27.0,0.002109751558376705,0.0009152882836903487
27.1,0.0010101942744155572,0.0004385003510286967
27.200000000000003,0.0017712942535912295,0.000768582827762047
27.3,0.0010545137885213712,0.00045772822147903527
27.400000000000002,0.0011371270064867405,0.0004935674128770902
27.5,0.002460046034895701,0.0010670724320144265
27.6,0.001946170663464533,0.0008443897829297269
27.700000000000003,0.0014669679285015957,0.0006366292332284252
27.8,0.0010638460316240537,0.0004617768749099844
27.900000000000002,0.002308766794320019,0.0010015289747211521
28.0,0.0020279764206401468,0.000879847115551238
28.1,0.0018264112075112749,0.0007924768349148551
28.200000000000003,0.0007235448366880979,0.0003141179044881301
28.3,0.0019159964725860466,0.0008313105554157029
28.400000000000002,0.0026136232800285297,0.0011336014092367288
28.5,0.0024555543929378025,0.001065126519361944
28.6,0.0017577579448730144,0.0007627144385063315
28.700000000000003,0.0022673420155287652,0.0009835794912701817
28.8,0.0030063199103188254,0.0013036695044962806
28.900000000000002,0.007481479921053669,0.003237071446380471
29.0,0.007424801613644593,0.0032126384726154852
29.1,0.0032607027999417646,0.0014138014905134841
29.200000000000003,0.004319320316718339,0.0018718173935415772
29.3,0.0018706953851271872,0.0008116737224225741
29.400000000000002,0.0019318407153665646,0.0008381784094332859
29.5,0.0011768962115230098,0.0005108189988909846
29.6,0.00183338483931993,0.000795499912803949
29.700000000000003,0.0016064724922953382,0.0006971223346108422
29.8,0.000880490670190264,0.0003822239917844137
29.900000000000002,0.0006337934575693469,0.00027516581135136675
30.0,0.00037705828563042745,0.00016372346809946918
30.1,0.0015970776740716704,0.0006930487418771603
30.200000000000003,0.002022566172208579,0.0008775022235541693
30.3,0.0017439821322862772,0.0007567421358418183
30.400000000000002,0.0007383462064960181,0.00032054136252259905
30.5,0.0019338831424305523,0.0008390637130671469
30.6,0.001295369344597178,0.0005622077036365373
30.700000000000003,0.0004862695172184562,0.00021113283847337585
30.8,0.0008274436860614366,0.00035920563621038865
30.900000000000002,0.0010713304181581777,0.0004650238362644747
31.0,0.0015913015082209814,0.0006905441776718077
31.1,0.0021961463003741413,0.0009527284366911686
31.200000000000003,0.0004985205620108188,0.00021645078109567125
31.3,0.0022577700377322844,0.000979431818474264
31.400000000000002,0.0026097231490337567,0.0011319120160101087
31.5,0.0034543199759130934,0.0014976069840016949
31.6,0.0010311956125835377,0.00044761181628140027
31.700000000000003,0.002770139723684103,0.0012013931498489937
31.8,0.0016578890572479172,0.0007194158779602043
31.900000000000002,0.0013930171588107888,0.000604558682652836
32.0,0.0019056464889640285,0.0008268241872893612
32.1,0.0007140529668039291,0.0003099985987269559
32.2,0.000845017094085022,0.0003668312935370952
32.300000000000004,0.0020295042406780774,0.0008805092959709758
32.4,0.0016097188160413454,0.0006985299315497009
32.5,0.0025650972631171298,0.0011125812566073665
32.6,0.0015897560787754453,0.0006898740720137884
32.7,0.0034972639461796347,0.0015161927131941801
32.800000000000004,0.0021679647532142875,0.0009405159944943174
32.9,0.0015103339173568164,0.0006554348478978416
33.0,0.002009791841239683,0.0008719655649989879
33.1,0.0017524097249111757,0.0007603958054841568
33.2,0.0017158225357029684,0.0007445336978377056
33.300000000000004,0.0010933307861194805,0.00047456814457328355
33.4,0.0030508952358956113,0.0013229698691958579
33.5,0.00157359111089833,0.0006828648020416794
33.6,0.0031267587159165603,0.0013558155054752214
33.7,0.002467443501388394,0.001070277215124663
33.800000000000004,0.0030529723222025937,0.0013238691916448435
33.9,0.0038415816326664125,0.0016651812838670579
34.0,0.0012688625673823546,0.0005507106970540594
34.1,0.0029755172511611843,0.0012903319710716957
34.2,0.0067478571804778596,0.002920713903323553
34.300000000000004,0.0015134082074263193,0.0006567679795876274
34.4,0.0016609756458103844,0.0007207541455762353
34.5,0.0019043315969896216,0.0008262542227368021
34.6,0.0013553929744742504,0.000588241130670069
34.7,0.006863882509148564,0.002970762439558486
34.800000000000004,0.004028648681573782,0.0017461050269405266
34.9,0.004237930291340833,0.0018366207478775509
35.0,0.004185876522491079,0.0018141089010232335
35.1,0.0014965768314586197,0.0006494691905047442
35.2,0.003385053922994729,0.00146762763939754
35.300000000000004,0.0030159858611410475,0.001307854771123154
35.4,0.004017950421838518,0.0017414774499001457
35.5,0.003764221287076652,0.001631711395330577
35.6,0.005976204137878412,0.002587707823449095
35.7,0.005103482960750253,0.0022107779407693935
35.800000000000004,0.003293467310519823,0.0014279844578706643
35.9,0.0033788046122722017,0.001464922745993237
36.0,0.005382866878703313,0.002331479973578689
36.1,0.0068345386245778185,0.0029581052442070902
36.2,0.00543942938061665,0.0023559125477706265
36.300000000000004,0.004590661686868403,0.0019891367971390742
36.4,0.007358598563449511,0.003184097817185457
36.5,0.008397869212383809,0.003631919322653544
36.6,0.004704557527482965,0.0020383723048638972
36.7,0.004008114396988574,0.0017372227926613095
36.800000000000004,0.0020066690450039532,0.0008706120699557082
36.9,0.004882279156894537,0.002115187620092475
37.0,0.0037245645229239278,0.0016145529295243848
37.1,0.0007572517481837781,0.00032874579968548675
37.2,0.0008969595405875716,0.00038936998050177524
37.300000000000004,0.002033662206465667,0.0008823114164107601
37.4,0.005905257058632378,0.002557077862757367
