Frequency (Hz),Power,Log Power
0.0,0.000619177784595415,0.00026882227936096795
0.1,0.0006191752292002727,0.0002688211702536542
0.2,0.0006191914476557035,0.00026882820948079657
0.30000000000000004,0.0006192130995179163,0.00026883760694618576
0.4,0.0006192515591814404,0.0002688542994292745
0.5,0.0006193011956493913,0.00026887584293206607
0.6000000000000001,0.0006193557811450606,0.0002688995344388064
0.7000000000000001,0.0006194208612266917,0.000268927780863598
0.8,0.0006194977048608034,0.00026896113296959515
0.9,0.0006195820469338682,0.0002689977395872768
1.0,0.000619678073927243,0.0002690394177555114
1.1,0.0006197862444461402,0.0002690863665193531
1.2000000000000002,0.0006199018552043432,0.00026913654453118935
1.3,0.0006200324885614794,0.00026919324272627624
1.4000000000000001,0.0006201635583990458,0.00026925013035760385
1.5,0.0006203129504417283,0.00026931497028110713
1.6,0.0006204701366153405,0.000269383193044122
1.7000000000000002,0.0006206381158243402,0.0002694561002447954
1.8,0.0006208193029079733,0.0002695347399815313
1.9000000000000001,0.0006210070947937796,0.0002696162463529071
2.0,0.0006212084261910465,0.00026970362919354513
2.1,0.0006214133732702372,0.0002697925813122497
2.2,0.0006216329595932604,0.00026988788720576704
2.3000000000000003,0.0006218597688161377,0.0002699863279945401
2.4000000000000004,0.0006221045024023224,0.0002700925483734222
2.5,0.0006223560460104802,0.0002702017244417514
2.6,0.0006226206296902577,0.00027031656018990335
2.7,0.0006228853936479965,0.00027043147415279625
2.8000000000000003,0.0006231700560607873,0.00027055502449257297
2.9000000000000004,0.0006234602348033358,0.0002706809690161165
3.0,0.0006237658154709726,0.0002708135983045053
3.1,0.000624083679637708,0.00027095155888101207
3.2,0.0006244029901954619,0.0002710901471814433
3.3000000000000003,0.0006247406045400456,0.0002712366797082756
3.4000000000000004,0.000625086265688009,0.00027138670468480517
3.5,0.0006254427083070976,0.00027154140901621725
3.6,0.0006258079812698698,0.000271699945863665
3.7,0.0006261875594666266,0.00027186469144964865
3.8000000000000003,0.0006265753807009713,0.00027203301463711745
3.9000000000000004,0.0006269739020347971,0.00027220598184190755
4.0,0.0006273812315573212,0.00027238277192709445
4.1000000000000005,0.0006278052046840006,0.0002725667856307025
4.2,0.0006282402888000145,0.00027275562166814775
4.3,0.0006286818614332248,0.0002729472737801812
4.4,0.0006291388872019647,0.00027314563279960707
4.5,0.0006296043999040431,0.0002733476752376313
4.6000000000000005,0.0006300825474899265,0.00027355520138666617
4.7,0.0006305634293738147,0.00027376391417880666
4.800000000000001,0.0006310673801856622,0.0002739826392604449
4.9,0.0006315747465755867,0.00027420284666226295
5.0,0.0006320950149159028,0.00027442865365887487
5.1000000000000005,0.0006326296136567474,0.0002746606802171989
5.2,0.0006331744383685697,0.0002748971449241418
5.300000000000001,0.0006337284691195122,0.00027513760510228
5.4,0.0006342992887961221,0.00027538535186312057
5.5,0.0006348739976379088,0.0002756347864538807
5.6000000000000005,0.0006354671096398286,0.00027589220821675733
5.7,0.0006360639349384858,0.00027615124146625024
5.800000000000001,0.0006366742427320924,0.00027641612620882657
5.9,0.0006373089382877294,0.0002766915955147104
6.0,0.0006379452153024015,0.0002769677510268949
6.1000000000000005,0.0006385966197243124,0.00027725047192021844
6.2,0.0006392439885654109,0.000277531441118782
6.300000000000001,0.0006399232507248331,0.00027782625236993176
6.4,0.0006406002556601189,0.00027812008374852697
6.5,0.0006412883119977454,0.0002784187114155252
6.6000000000000005,0.000642011669397511,0.00027873266009751453
6.7,0.0006427218843964184,0.0002790409045465665
6.800000000000001,0.0006434668511661925,0.0002793642315740173
6.9,0.0006442148515843427,0.00027968887500942803
7.0,0.0006449953932299901,0.00028002764156832247
7.1000000000000005,0.0006457362954768643,0.0002803492038004939
7.2,0.0006464874640045401,0.0002806752215031965
7.300000000000001,0.0006472828403669565,0.00028102042576088314
7.4,0.0006480974096469907,0.0002813739597238704
7.5,0.0006489439080325981,0.00028174135104082164
7.6000000000000005,0.0006497038136962228,0.00028207115972460117
7.7,0.0006505698518590687,0.00028244703095216343
7.800000000000001,0.0006512781653683581,0.00028275444749584845
7.9,0.0006528701888827926,0.000283445403968415
8.0,0.0006532685906919511,0.0002836183147529462
8.1,0.0006541747757568008,0.0002840116088213924
8.200000000000001,0.000655055772117174,0.0002843939703795351
8.3,0.0006559640012835252,0.00028478815090553905
8.4,0.0006569629549843986,0.0002852217063721743
8.5,0.0006578216952374503,0.00028559440751462585
8.6,0.0006588193719191976,0.000286027407939147
8.700000000000001,0.0006598586697648613,0.00028647847185448827
8.8,0.0006607376171714024,0.00028685994197905805
8.9,0.0006619738201337837,0.0002873964632727326
9.0,0.000663005904802724,0.00028784439519890636
9.1,0.0006638468390970268,0.0002882093661911392
9.200000000000001,0.0006646696118499609,0.0002885664546586929
9.3,0.0006659098324226367,0.0002891047175090107
9.4,0.0006670434767484978,0.00028959672507256816
9.5,0.0006677181261409875,0.00028988952617115037
9.600000000000001,0.0006691864987332427,0.00029052680629394214
9.700000000000001,0.0006702278258256965,0.00029097874623667847
9.8,0.0006714461068933558,0.00029150748428470895
9.9,0.0006725924511410831,0.0002920050009250939
10.0,0.000673625578240478,0.00029245338051513516
10.100000000000001,0.0006749299992591974,0.00029301950164275717
10.200000000000001,0.0006762041267460743,0.00029357247460921453
10.3,0.000676701537347058,0.00029378835125806827
10.4,0.000678830426728471,0.00029471228995479556
10.5,0.0006849223198483943,0.00029735616272676645
10.600000000000001,0.000681753952518226,0.00029598109791281133
10.700000000000001,0.0006810641473615194,0.00029568172333627874
10.8,0.0006853469935969076,0.00029754046991715386
10.9,0.0006836811610767421,0.0002968175029268643
11.0,0.0006829550811146833,0.00029650238573126656
11.100000000000001,0.0006898209997635066,0.0002994821710246322
11.200000000000001,0.0006894408537879685,0.0002993171895014777
11.3,0.0006882193029840148,0.00029878704190961153
11.4,0.0006902788398591928,0.00029968087133871177
11.5,0.0006916067534641113,0.0003002571786943281
11.600000000000001,0.000693996192707837,0.00030129418053635005
11.700000000000001,0.0006935287223542551,0.00030109130149112375
11.8,0.0006948064324395913,0.0003016458190026563
11.9,0.0006995209310528847,0.0003036918733006001
12.0,0.0007020951728663823,0.00030480906937527973
12.100000000000001,0.0006988909218261053,0.00030341845494559234
12.200000000000001,0.000700006664592994,0.00030390267718379606
12.3,0.0007042433678018475,0.0003057413630215737
12.4,0.0007035588825477187,0.00030544430395291957
12.5,0.0007044907756709488,0.0003058487352644226
12.600000000000001,0.000703797750943826,0.0003055479702315666
12.700000000000001,0.0007081219968413863,0.0003074246415086632
12.8,0.000710231848885486,0.00030834028925273954
12.9,0.0007031828112792078,0.00030528109307395113
13.0,0.0007135187328070997,0.0003097667493409036
13.100000000000001,0.0007089743915119294,0.00030779456969847217
13.200000000000001,0.0007220758382317804,0.0003134803873686374
13.3,0.0007187899556166818,0.0003120543740276336
13.4,0.00071923193423771,0.0003122461849896874
13.5,0.0007223078715649638,0.0003135810854415418
13.600000000000001,0.0007223574204306023,0.0003136025887079786
13.700000000000001,0.0007237642096011142,0.0003142131080393177
13.8,0.000725477304292603,0.00031495655689231554
13.9,0.0007275095686812389,0.00031583851736353876
14.0,0.0007287452202982364,0.0003163747635868029
14.100000000000001,0.0007276011458048536,0.0003158782598881271
14.200000000000001,0.0007318855347867751,0.0003177375895479179
14.3,0.0007346746986461427,0.0003189480204361932
14.4,0.0007368512310397443,0.0003198925814714115
14.5,0.0007265928805855806,0.00031544069401991917
14.600000000000001,0.0007373601645890426,0.0003201134457032458
14.700000000000001,0.0007411996878254773,0.0003217796976313791
14.8,0.0007417794438667099,0.000322031295923403
14.9,0.0007426635103769877,0.00032241495636940433
15.0,0.0007413855867587093,0.00032186037270839115
15.100000000000001,0.0007460843497811563,0.0003238995029883212
15.200000000000001,0.0007416947378655398,0.0003219945358408569
15.3,0.0007456948764483988,0.0003237304829393818
15.4,0.0007462071442400455,0.0003239527921827871
15.5,0.0007379221692900095,0.0003203573413362341
15.600000000000001,0.0007323385464178813,0.0003179341860688609
15.700000000000001,0.0007058610448324001,0.0003064434162452699
15.8,0.0008381657339891344,0.00036385828771006806
15.9,0.0007836433898996329,0.00034019872017694217
16.0,0.0007869333909560555,0.0003416264283185989
16.1,0.0007771455055387245,0.000337378925407173
16.2,0.0007805130368859076,0.00033884028753725743
16.3,0.0007748106318758555,0.0003363656889087537
16.400000000000002,0.0007759949024193515,0.00033687961257300523
16.5,0.0007657253633815602,0.00033242304382832496
16.6,0.0007842997690906688,0.0003404835587323937
16.7,0.0007850023418482703,0.0003407884429763795
16.8,0.0007856371185677599,0.000341063906675782
16.900000000000002,0.0007835581360410201,0.00034016172388689526
17.0,0.0007969401430483891,0.0003459688665975564
17.1,0.0008125741643923748,0.00035275317607575215
17.2,0.0007704772355189337,0.00033448517175323954
17.3,0.000797778816696681,0.00034633280774321116
17.400000000000002,0.0007821712721408964,0.0003395598877043038
17.5,0.0007877435904714194,0.00034197801667836295
17.6,0.000806075005369604,0.0003499329096860828
17.7,0.0009278041514962339,0.0004027534140150833
17.8,0.0007511786106318268,0.0003261102573248751
17.900000000000002,0.0007427845971205906,0.0003224675046451751
18.0,0.000719028227192015,0.000312157779718715
18.1,0.0009345303345735797,0.00040567184066658065
18.2,0.000816137743575968,0.00035429955954449275
18.3,0.0006826693875489627,0.00029637839525438513
18.400000000000002,0.0013025321723045143,0.0005653144446810653
18.5,0.0008535790490527887,0.0003705465479754549
18.6,0.0008934756487464272,0.00038785829878364776
18.7,0.0008867681744247394,0.0003849478703343308
18.8,0.0006469607734913565,0.00028088064434959994
18.900000000000002,0.000791704372602766,0.0003436968051334879
19.0,0.000793363271787839,0.00034441668536619186
19.1,0.0006543118424507489,0.00028407109721027027
19.200000000000003,0.0007001324649444448,0.00030395727336113857
19.3,0.0010914630494568212,0.00047375788197540444
19.400000000000002,0.0008020846465218053,0.00034820131120107817
19.5,0.0006865655355461478,0.0002980693131982635
19.6,0.0011836613670958142,0.0005137536049721898
19.700000000000003,0.0002987317309729806,0.00012971816782913172
19.8,0.001524560519037306,0.0006616040211092892
19.900000000000002,0.0038709474728979903,0.0016778857145910956
20.0,0.0022031240351568313,0.0009557521772773355
20.1,0.0004747193107818115,0.0002061190566472145
20.200000000000003,0.0008256802902378323,0.0003584404356205156
20.3,0.0009566969212982558,0.0004152895723059912
20.400000000000002,0.001185080690959109,0.0005143692803059416
20.5,0.0011452344436939947,0.000497084414583989
20.6,0.0008938969916423696,0.00038804112229146113
20.700000000000003,0.0011019800593853027,0.00047832035758816536
20.8,0.0009602458252918098,0.00041682936587914254
20.900000000000002,0.0007890807006028133,0.00034255825876017157
21.0,0.0020208107698431246,0.0008767414001412495
21.1,0.0006803043599611354,0.00029535197631440547
21.200000000000003,0.0009559001274894741,0.0004149438597560549
21.3,0.0005507472250713101,0.00023912063930023414
21.400000000000002,0.000985307181313306,0.0004277027970904854
21.5,0.001253845749421734,0.0005441971917149143
21.6,0.001203066343400062,0.0005221710340472449
21.700000000000003,0.0017611142119492924,0.0007641694867130353
21.8,0.0012465257664246476,0.0005410221329049483
21.900000000000002,0.0009768251385770766,0.00042402270315050286
22.0,0.001783341210366618,0.0007738054723146568
22.1,0.0017947863327781915,0.000778767149066644
22.200000000000003,0.0023866002910470957,0.00103525246080067
22.3,0.004349163052769962,0.0018847219974623298
22.400000000000002,0.006680765697093151,0.002891770775470514
22.5,0.0027619975891369085,0.0011978668198151681
22.6,0.006307014369777085,0.0027304999098150652
22.700000000000003,0.004971697346480258,0.002153831050708267
22.8,0.004132776194307798,0.0017911432431666193
22.900000000000002,0.0011745266627906149,0.000509791125434507
23.0,0.000489758130245952,0.00021264718483868982
23.1,0.0020018981366230603,0.0008685442352992299
23.200000000000003,0.0005905253587008328,0.00025638621087653644
23.3,0.0010552839893733948,0.0004580623629735183
23.400000000000002,0.0007465864281084257,0.00032411739021842535
23.5,0.001185756222787951,0.0005146623126856002
23.6,0.0033393048012921416,0.0014478256262068512
23.700000000000003,0.0021533006970484024,0.0009341612061826685
23.8,0.0018476403850884657,0.0008016796437950052
23.900000000000002,0.002464194915839823,0.001068869842672858
24.0,0.0011752035578234462,0.0005100847522401434
24.1,0.002757323175886209,0.0011958423348252744
24.200000000000003,0.002168949503403746,0.0009409427406868969
24.3,0.0019548230941814166,0.0008481401707255103
24.400000000000002,0.0024238432798503705,0.0010513880755971866
24.5,0.003224888954857821,0.0013982980098393295
24.6,0.0026573080400362345,0.0011525235906949495
24.700000000000003,0.0030598423286297195,0.001326843706198701
24.8,0.00970261219581148,0.004193479821919948
24.900000000000002,0.0038989043881105094,0.0016899802621782208
25.0,0.001765042124463105,0.0007658723551529623
25.1,0.0004341156678848516,0.00018849312811962748
25.200000000000003,0.0010125635458733545,0.0004395282729303709
25.3,0.0002076000058655019,9.015017972529054e-05
25.400000000000002,0.0009310044350748554,0.0004041419889662688
25.5,0.0005777193636920558,0.00025082788465147194
25.6,0.0007480891945260816,0.0003247695460005686
25.700000000000003,0.0006382804705314908,0.00027711325767318065
25.8,0.00013059701206304296,5.671385844242376e-05
25.900000000000002,0.00037364566504499957,0.00016224194190416025
26.0,0.007244087847644346,0.00313472691901087
26.1,0.0009485884791032358,0.0004117714720963311
26.200000000000003,0.004488281220933222,0.0019448744533364
26.3,0.00515274547329239,0.00223206322476792
26.400000000000002,0.0023493018874937237,0.0010190922365723813
26.5,0.001265949301935262,0.0005494470834574341
26.6,0.0012008367232516823,0.000521203884786544
26.700000000000003,0.0014324274787558848,0.0006216502215387678
26.8,0.001562142769766785,0.0006779006338164992
26.900000000000002,0.0008409076513229945,0.0003650480883966607
27.0,0.001297086596096855,0.0005629525310207942
27.1,0.0006686683289620985,0.0002903019184553086
27.200000000000003,0.0015973942772641743,0.000693186021628481
27.3,0.0017239636882444875,0.0007480632849502425
27.400000000000002,0.0008875598300582116,0.0003852913772605446
27.5,0.0010658247761938418,0.00046263531865643086
27.6,0.0008691368313996648,0.0003772973921063822
27.700000000000003,0.0007424541112042381,0.00032232408294306287
27.8,0.0013578396802688343,0.0005893022819204079
27.900000000000002,0.0023618382283554975,0.0010245239055550939
28.0,0.001512298222612118,0.0006562866474925944
28.1,0.0010120777599542503,0.0004393175121438397
28.200000000000003,0.0013978090676764927,0.0006066368822839833
28.3,0.0008945883264074669,0.0003883410969150359
28.400000000000002,0.0014261356025697348,0.0006189215944067257
28.5,0.0011063887985960615,0.0004802329368593255
28.6,0.0005481052709979103,0.00023797388328261788
28.700000000000003,0.0019175325112073033,0.000831976372298715
28.8,0.00643307349935093,0.002784900162256052
28.900000000000002,0.020982259426317616,0.009018195857533676
29.0,0.008246281115774265,0.0035666288012761688
29.1,0.003604938506198166,0.0015627897098445325
29.200000000000003,0.0012399116848949559,0.0005381532404545043
29.3,0.0024980825585645653,0.0010835506338347167
29.400000000000002,0.0044280235460207205,0.0019188210277630644
29.5,0.0011741370828643384,0.0005096221314772368
29.6,0.002724470464579603,0.0011816135831283128
29.700000000000003,0.003090342028448094,0.0013400489501880454
29.8,0.0038982491458948677,0.0016896967992017548
29.900000000000002,0.0017874408599161749,0.0007755827543482885
30.0,0.0019058161937899369,0.0008268977489700318
30.1,0.0014427221939333154,0.0006261147414516515
30.200000000000003,0.0007744209579470172,0.000336196586660962
30.3,0.0009452507423035318,0.00041032328274111273
30.400000000000002,0.0023216053208775854,0.001007091796992419
30.5,0.000997133633282559,0.0004328338738932624
30.6,0.0016658609315104516,0.0007228722748633614
30.700000000000003,0.001722646485941388,0.0007474922153855815
30.8,0.0003040638319883476,0.00013203317213990724
30.900000000000002,0.003175734502571831,0.0013770186031809646
31.0,0.0014526263886478086,0.0006304098606303122
31.1,0.0009512044947242721,0.00041290651507177656
31.200000000000003,0.002132246485057062,0.0009250370291392592
31.3,0.0020636870394860887,0.0008953243763917241
31.400000000000002,0.003128189155287702,0.0013564348005715478
31.5,0.0287752536541656,0.012320509107849374
31.6,0.002723231822273303,0.0011810771088856236
31.700000000000003,0.0029277448053765653,0.00126964571965804
31.8,0.002534357851169024,0.001099265251804711
31.900000000000002,0.0026554056242692726,0.001151699570915661
32.0,0.0010871770670363096,0.0004718985288912425
32.1,0.0026816024570952,0.0011630464317120533
32.2,0.003970168914797345,0.0017208087570437442
32.300000000000004,0.0029940765281936954,0.0012983681762350938
32.4,0.004191338781421863,0.0018164712350452175
32.5,0.003646657650440933,0.0015808426476742157
32.6,0.002105062372890029,0.0009132560789911479
32.7,0.0011999167557153634,0.0005208048269816739
32.800000000000004,0.0019001651227469162,0.0008244481815031651
32.9,0.0040159230023447704,0.001740600475552017
33.0,0.004171486310182099,0.0018078853175962817
33.1,0.001974665180888566,0.0008567405818846923
33.2,0.0011281668491139453,0.0004896804685086048
33.300000000000004,0.0042634413812326815,0.0018476531780507654
33.4,0.0031007579296450714,0.001344558558882936
33.5,0.011041028776840493,0.0047687799330692485
33.6,0.0026915590086079365,0.0011673589212415122
33.7,0.0027172705671399274,0.0011784951921380263
33.800000000000004,0.0031840196482697705,0.001380605390695976
33.9,0.006939663766481595,0.0030034482315443585
34.0,0.012570918488816871,0.005425450088942462
34.1,0.04423138873697952,0.018796743605954624
34.2,0.022979912497453226,0.00986710587524615
34.300000000000004,0.016011858555026848,0.006898776919314059
34.4,0.0065692057568205635,0.002843639776142664
34.5,0.0020822902865427714,0.000903386950309795
34.6,0.005973197137766164,0.002586409656054823
34.7,0.014655418361926808,0.006318578887653859
34.800000000000004,0.016907848592419675,0.007281599273692272
34.9,0.0029103571923995318,0.001262116353891141
35.0,0.0006867628256359918,0.0002981549364012203
35.1,0.0013113915644460134,0.000569157007717777
35.2,0.0031109677536791135,0.0013489789001484558
35.300000000000004,0.004015576813538833,0.0017404507290085139
35.4,0.0019072685568860392,0.0008275273019788604
35.5,0.005321010869439023,0.002304759257712193
35.6,0.005355279455512418,0.0023195628916013373
35.7,0.001646573652932194,0.0007145097663368655
35.800000000000004,0.009311420592423608,0.004025187423664984
35.9,0.0055792906164066165,0.002416320700543907
36.0,0.0011795572242136578,0.0005119733019880557
36.1,0.006096508966194617,0.002639642053068193
36.2,0.006959554093157712,0.003012026872463806
36.300000000000004,0.009926236885809013,0.0042896548882687385
36.4,0.008577549234596507,0.0037092966091072724
36.5,0.015408321487159529,0.006640718218818531
36.6,0.0161731809707723,0.006967728745796452
36.7,0.052687229041429924,0.022299354206580906
36.800000000000004,0.06614657153343773,0.027816914664648338
36.9,0.03317471023611221,0.014173767091556459
37.0,0.013319395644104797,0.005746355432034808
37.1,0.006226348454500413,0.002695685319857777
37.2,0.01131271696406202,0.0048854684021038645
