Frequency (Hz),Power,Log Power
0.0,0.0014159844638736985,0.000614519266857684
0.1,0.0014159840905993491,0.0006145191049759371
0.2,0.0014159820913558286,0.0006145182379431516
0.30000000000000004,0.0014159778335490726,0.0006145163914158104
0.4,0.0014159718158701772,0.0006145137816664532
0.5,0.0014159634745633627,0.0006145101642051652
0.6000000000000001,0.0014159547533482476,0.000614506381985048
0.7000000000000001,0.0014159439725637793,0.0006145017065699855
0.8,0.0014159312994249968,0.0006144962104778771
0.9,0.001415916932953012,0.0006144899800202131
1.0,0.0014159012709139016,0.0006144831877003115
1.1,0.0014158827844708859,0.0006144751704916098
1.2000000000000002,0.0014158639624116934,0.0006144670077326713
1.3,0.0014158438571834299,0.000614458288488109
1.4000000000000001,0.001415820631262682,0.0006144482158600451
1.5,0.001415796081932068,0.0006144375692947409
1.6,0.0014157699104570638,0.0006144262192367897
1.7000000000000002,0.001415741969935262,0.0006144141019773907
1.8,0.0014157138851661583,0.000614401922160515
1.9000000000000001,0.00141568255959454,0.0006143883368702579
2.0,0.001415648995687479,0.0006143737808571119
2.1,0.0014156148015845467,0.0006143589515396748
2.2,0.0014155792468458662,0.0006143435321405037
2.3000000000000003,0.001415541095905306,0.0006143269868185044
2.4000000000000004,0.001415502334330576,0.0006143101766755644
2.5,0.0014154604787715527,0.0006142920247309857
2.6,0.0014154174763053046,0.0006142733753941814
2.7,0.001415372759023106,0.0006142539823741058
2.8000000000000003,0.0014153264299721288,0.0006142338903601112
2.9000000000000004,0.0014152794192651115,0.000614213502724106
3.0,0.001415229920627902,0.0006141920361198251
3.1,0.0014151776629948074,0.0006141693729910739
3.2,0.0014151242814261058,0.0006141462224319757
3.3000000000000003,0.001415069419959734,0.0006141224300683128
3.4000000000000004,0.001415014059970397,0.0006140984215035805
3.5,0.001414956320274774,0.0006140733809044319
3.6,0.001414896230066051,0.0006140473209312705
3.7,0.0014148343976046716,0.0006140205053748942
3.8000000000000003,0.001414771192228894,0.0006139930944101541
3.9000000000000004,0.0014147065662577702,0.0006139650673584162
4.0,0.0014146409690476253,0.000613936619097047
4.1000000000000005,0.0014145726896938333,0.0006139070076390664
4.2,0.001414501817238925,0.000613876271600206
4.3,0.0014144295716658278,0.000613844940063859
4.4,0.001414356260524972,0.0006138131464086094
4.5,0.001414282294766913,0.0006137810688559773
4.6000000000000005,0.0014142048331856497,0.0006137474752282001
4.7,0.00141412564387305,0.0006137131323133378
4.800000000000001,0.0014140443338503395,0.0006136778696835048
4.9,0.001413962935651486,0.000613642568810471
5.0,0.0014138832650521782,0.0006136080171621333
5.1000000000000005,0.0014137945493772107,0.0006135695428306134
5.2,0.0014137073587491978,0.0006135317298800721
5.300000000000001,0.0014136176170069447,0.0006134928105554018
5.4,0.0014135358463284358,0.0006134573481298288
5.5,0.0014134398234684207,0.0006134157047938962
5.6000000000000005,0.001413347669813389,0.0006133757394568307
5.7,0.0014132440274334842,0.0006133307916676243
5.800000000000001,0.0014131548312817073,0.0006132921089375035
5.9,0.0014130527795774258,0.0006132478509865803
6.0,0.0014129594566228147,0.0006132073785301489
6.1000000000000005,0.0014128511344582112,0.0006131604011863455
6.2,0.0014127555760186845,0.0006131189592326567
6.300000000000001,0.001412650886969594,0.0006130735574955475
6.4,0.0014125315767749935,0.0006130218148276313
6.5,0.0014124226705175098,0.0006129745841531721
6.6000000000000005,0.001412303033176257,0.0006129226995959045
6.7,0.0014122119719999998,0.0006128832080017884
6.800000000000001,0.001412086709376158,0.0006128288838492869
6.9,0.0014119628290609407,0.0006127751591725893
7.0,0.0014118496080078352,0.0006127260572212998
7.1000000000000005,0.0014117121601697703,0.0006126664485381063
7.2,0.0014116097024997687,0.0006126220144632859
7.300000000000001,0.001411468003741968,0.0006125605622168974
7.4,0.0014113657609965552,0.0006125162213402257
7.5,0.0014111644562956255,0.0006124289190260533
7.6000000000000005,0.0014111090802990211,0.0006124049034256598
7.7,0.0014109456918685247,0.0006123340447154401
7.800000000000001,0.0014108065587080253,0.0006122737050833106
7.9,0.0014106941562772438,0.000612224958097734
8.0,0.001410523308106178,0.0006121508641972564
8.1,0.0014104741191756274,0.0006121295318054874
8.200000000000001,0.0014103106211136793,0.0006120586255050736
8.3,0.0014100984765882225,0.0006119666220519702
8.4,0.0014101493823936596,0.0006119886990311497
8.5,0.0014096262012254174,0.0006117618042328892
8.6,0.001409509630172581,0.0006117112493284752
8.700000000000001,0.0014092664743316759,0.0006116057967122325
8.8,0.0014088460551874816,0.0006114234679093772
8.9,0.0014103782187119664,0.00061208794142351
9.0,0.0014097356152498618,0.0006118092552491838
9.1,0.001408226665796898,0.0006111548488745393
9.200000000000001,0.0014095447810685106,0.0006117264936812997
9.3,0.0014096248301737825,0.0006117612096309567
9.4,0.0014099755824889123,0.000611913324973718
9.5,0.0014076853663403733,0.0006109200960291653
9.600000000000001,0.001406518452021944,0.0006104140236752558
9.700000000000001,0.0014095434831975626,0.0006117259308165028
9.8,0.0014075237426743868,0.0006108500024269477
9.9,0.0014084759349649288,0.0006112629528503238
10.0,0.0014068306587627735,0.0006105494228773348
10.100000000000001,0.0014067376171997474,0.0006105090722046666
10.200000000000001,0.001406247129187761,0.0006102963551525338
10.3,0.001411788844212898,0.0006126997050449911
10.4,0.0014045213860173669,0.0006095479262466633
10.5,0.0014040367809737505,0.0006093377600822528
10.600000000000001,0.0014108533752129283,0.0006122940085882553
10.700000000000001,0.0014160422729188426,0.0006145443375066038
10.8,0.0014064034944082319,0.0006103641683374851
10.9,0.001406948706405919,0.0006106006182910859
11.0,0.0014063366763177718,0.0006103351903632917
11.100000000000001,0.0014042124004838609,0.000609413923723139
11.200000000000001,0.0014053514902459653,0.0006099079301498894
11.3,0.0014063866432043259,0.0006103568602307615
11.4,0.0014086004732600736,0.0006113169630692719
11.5,0.0014029641968235824,0.0006088725955630899
11.600000000000001,0.0014065693840980193,0.0006104361121264864
11.700000000000001,0.0014021762872915662,0.0006085308900670364
11.8,0.0014018424255067949,0.0006083860987350411
11.9,0.0014035563971714037,0.0006091294245084893
12.0,0.0014010187884965478,0.0006080288983179426
12.100000000000001,0.0014021546054524018,0.0006085214869486364
12.200000000000001,0.0014064850099155674,0.0006103995203519248
12.3,0.0014041682327124503,0.000609394768800881
12.4,0.0014031853487081493,0.0006089685060366609
12.5,0.0014028565457944882,0.000608825908812463
12.600000000000001,0.001402665456439758,0.0006087430360109602
12.700000000000001,0.0014036858885692382,0.0006091855830826573
12.8,0.0014041796452180886,0.0006093997182392185
12.9,0.0014003987365272766,0.0006077599898316449
13.0,0.001400440364343552,0.0006077780432801576
13.100000000000001,0.001401845995032818,0.0006083876467903571
13.200000000000001,0.00140318508255099,0.000608968390607974
13.3,0.0013994008156027725,0.0006073272041374248
13.4,0.001403788634604164,0.0006092301425687936
13.5,0.0014012255285132053,0.0006081185587411617
13.600000000000001,0.0014040153282800175,0.0006093284563583654
13.700000000000001,0.0013993853660649478,0.0006073205038646948
13.8,0.0014002061694720583,0.000607676475966849
13.9,0.0014034504606235004,0.0006090834813316766
14.0,0.0014032255198845602,0.0006089859277107089
14.100000000000001,0.0014035001028212227,0.0006091050104486176
14.200000000000001,0.001402201435577735,0.0006085417965359984
14.3,0.0014066050252105904,0.0006104515691233625
14.4,0.0013981673369967964,0.0006067922594573309
14.5,0.0013931362699286889,0.0006046103399914195
14.600000000000001,0.0013986572231866683,0.0006070047172228854
14.700000000000001,0.0013960066596494997,0.000605855198364111
14.8,0.0013973527658673094,0.0006064389894973361
14.9,0.0013914135169447704,0.0006038631981037543
15.0,0.001394389689482369,0.000605153935543746
15.100000000000001,0.0013940210109358784,0.0006049940434078412
15.200000000000001,0.0013894491739200384,0.0006030112793021736
15.3,0.0013991998092463982,0.0006072400301685537
15.4,0.0014003475124756617,0.0006077377746183492
15.5,0.0014018370384420937,0.0006083837624376419
15.600000000000001,0.001391385881931557,0.0006038512130460343
15.700000000000001,0.0013935319404189612,0.0006047819384081135
15.8,0.0014041646177143862,0.0006093932010285766
15.9,0.0013898870724617046,0.0006032011923063974
16.0,0.0014116565798037615,0.0006126423443193613
16.1,0.0013736173319545517,0.0005961450835757101
16.2,0.001387613492512867,0.0006022151584352084
16.3,0.001388863519100557,0.000602757285482878
16.400000000000002,0.0013756220980654691,0.0005970145472532669
16.5,0.0013940829621763952,0.0006050209110349042
16.6,0.0013966597623933426,0.0006061384417797086
16.7,0.0013933737497843902,0.0006047133326872585
16.8,0.0013980938132087631,0.0006067603730632794
16.900000000000002,0.0014153058575604738,0.0006142249685025437
17.0,0.0014009856683943934,0.0006080145345639614
17.1,0.0014292065225486009,0.0006202533766608801
17.2,0.0013939981452675799,0.0006049841267981452
17.3,0.0014203310231952458,0.0006164042803398468
17.400000000000002,0.0013962525271204779,0.0006059618283807454
17.5,0.001420443236906269,0.0006164529450126486
17.6,0.0014426137543776755,0.0006260677145951926
17.7,0.001356966348381063,0.0005889235128429022
17.8,0.0013776495416583585,0.0005978938443462077
17.900000000000002,0.001359928486284737,0.0005902082077985409
18.0,0.001351227994061687,0.0005864347472572687
18.1,0.0013806168068532289,0.0005991807364510979
18.2,0.0013966287196767388,0.000606124978902028
18.3,0.0013943835341506403,0.0006051512660394321
18.400000000000002,0.0013893152796583428,0.0006029532104429128
18.5,0.0015175009872256087,0.0006585427616684437
18.6,0.0013920675179765244,0.000604146832397674
18.7,0.0015595035487077408,0.0006767562209002221
18.8,0.0013819807215026771,0.00059977225998641
18.900000000000002,0.0015029384718845099,0.0006522278784742273
19.0,0.001373379360774863,0.0005960418757612983
19.1,0.0015370541358083552,0.0006670216366065776
19.200000000000003,0.0015796005047562529,0.0006854705404376061
19.3,0.0014364597237554756,0.0006233988949184704
19.400000000000002,0.001401355816069659,0.0006081750627295076
19.5,0.0014297743872182672,0.0006204996451150078
19.6,0.0012603587498351103,0.0005470222005301749
19.700000000000003,0.0015723351404533363,0.0006823201976506162
19.8,0.0014901667386916291,0.0006466894737382124
19.900000000000002,0.0011981853614171018,0.000520053792520652
20.0,0.001723974639823845,0.0007480680329753044
20.1,0.0012910994137593746,0.0005603556913215672
20.200000000000003,0.0013534296682747367,0.0005873896309022152
20.3,0.0020273328367628922,0.0008795681762173153
20.400000000000002,0.0011158775815108522,0.00048434928910360306
20.5,0.001103655124520415,0.00047904702774860313
20.6,0.00138870682492879,0.0006026893284464173
20.700000000000003,0.00012322143942189995,5.351109440381713e-05
20.8,0.0015840247764173818,0.0006873889426535605
20.900000000000002,0.0012489485852347373,0.0005420730384908248
21.0,0.0013996850029568413,0.0006074504526455588
21.1,0.0015290633462021694,0.0006635565928900826
21.200000000000003,0.0013886227948595683,0.0006026528852584549
21.3,0.0013759014789034253,0.0005971357141128329
21.400000000000002,0.001154696845967041,0.0005011891633566907
21.5,0.001715401992217388,0.0007443513709248009
21.6,0.0013599686739101057,0.0005902256373592082
21.700000000000003,0.0005163928935858817,0.00022420869926993088
21.8,0.0019623245592985798,0.0008513916473749977
21.900000000000002,0.0014346042810492454,0.0006225942414954436
22.0,0.0023802540232312503,0.0010325028651684248
22.1,0.0012180620079646808,0.000528675694111766
22.200000000000003,0.0017623173581908572,0.0007646910875741814
22.3,0.001412593363624518,0.0006130486106645926
22.400000000000002,0.0005561499847290512,0.0002414657301194643
22.5,0.0015705854530083756,0.0006815615102952841
22.6,0.0010950046684231442,0.00047529430787666505
22.700000000000003,0.0016872933453370713,0.0007321646744976757
22.8,0.000574189326521201,0.0002492956914606062
22.900000000000002,0.0017040662309801649,0.0007394367151259079
23.0,0.0015672099354407216,0.0006800978379941689
23.1,0.0005640459061464372,0.00024489296563301655
23.200000000000003,0.0009690499277172543,0.00042064925413359773
23.3,0.00015155362972256158,6.581391805777742e-05
23.400000000000002,0.0016039404185573824,0.0006960244313201954
23.5,0.001392182802623635,0.0006041968302803777
23.6,0.0012396844175852036,0.0005380546617337174
23.700000000000003,0.0010845823557336092,0.00047077288240702413
23.8,0.0006347422873166387,0.00027557762167688575
23.900000000000002,0.00034804283313817825,0.00015112678412610459
24.0,0.0022167186051525504,0.0009616432053019867
24.1,0.0029357165021241622,0.0012730976633976703
24.200000000000003,0.0020005078348763815,0.0008679416408363317
24.3,0.0013963731213849585,0.0006060141287765894
24.400000000000002,0.0013605355293067306,0.0005904714851150717
24.5,0.0010486342006130538,0.0004551774312392614
24.6,0.0006341717439306265,0.0002753299949411396
24.700000000000003,0.0003403949216081465,0.00014780648126141798
24.8,0.004166525227833939,0.0018057396920336036
24.900000000000002,0.00587939179457282,0.002545910522892128
25.0,0.003203526222472725,0.0013890500180112823
25.1,0.003127900944301207,0.0013563100224421362
25.200000000000003,0.002061462701740714,0.0008943603471654956
25.3,0.0023501672597283237,0.001019467181936548
25.400000000000002,0.0016354102221474607,0.0007096694927976827
25.5,0.0021665008682288296,0.0009398816121771662
25.6,0.0013314377867003021,0.0005778514824195862
25.700000000000003,0.0014497919959479807,0.0006291806833146263
25.8,0.0008354672046056287,0.00036268731118200133
25.900000000000002,0.0010059345210316555,0.00043665222666811217
26.0,0.008577667792240931,0.003709347660142217
26.1,0.0030993071680908376,0.0013439304483086046
26.200000000000003,0.0011715103725293105,0.0005084827020230792
26.3,0.0018661988909927834,0.0008097245617357163
26.400000000000002,0.002565580989629348,0.0011127907988156271
26.5,0.0014120560551774285,0.0006128155896722561
26.6,0.002096329331652957,0.0009094713180033474
26.700000000000003,0.0024861610177783237,0.00107838604523923
26.8,0.002180672517887744,0.0009460229327309571
26.900000000000002,0.0028366007746295887,0.0012301761282015036
27.0,0.0008229072210242376,0.00035723709886608914
27.1,0.002299832776698071,0.0009976579002826983
27.200000000000003,0.0014429349864887395,0.0006262070229379615
27.3,0.002640555035532235,0.0011452670752958444
27.400000000000002,0.0027862569406364524,0.0012083733757831535
27.5,0.0022445148696470887,0.0009736881020420034
27.6,0.0021193946568202875,0.0009194673911047058
27.700000000000003,0.0014357644552418249,0.0006230973766535762
27.8,0.0020319227663042707,0.0008815575196627767
27.900000000000002,0.003752489044504242,0.0016266352251713427
28.0,0.0017044146742999683,0.0007395877846780908
28.1,0.0009192386209984222,0.00039903688368055047
28.200000000000003,0.0013361753085323889,0.00057990622138491
28.3,0.002338239709141253,0.0010142992272711739
28.400000000000002,0.0018506226684759034,0.0008029724424588387
28.5,0.0015885211871770628,0.0006893386163202218
28.6,0.002301639067763165,0.00099844056182748
28.700000000000003,0.0016204591871395381,0.0007031868940424156
28.8,0.0019311699719587827,0.0008378876708357016
28.900000000000002,0.0034131026152059594,0.0014797677664083928
29.0,0.007131910747192146,0.0030863567082789717
29.1,0.00214147250845019,0.0009290352964533139
29.200000000000003,0.0019486984197622293,0.0008454854398213955
29.3,0.0028385073211727395,0.001231001787990381
29.400000000000002,0.005230653769840768,0.0022657236134431204
29.5,0.004031385478161805,0.001747288831842821
29.6,0.0028529850782636388,0.0012372715558374053
29.700000000000003,0.005365906330401673,0.002324153476469009
29.8,0.003608169573839406,0.001564187902036074
29.900000000000002,0.0019438674957914426,0.0008433914716529153
30.0,0.0019797635028738175,0.0008589503857339948
30.1,0.0033490368889035568,0.0014520381308187832
30.200000000000003,0.0034255261940352483,0.001485144872124463
30.3,0.0024726812076839664,0.0010725463172429426
30.400000000000002,0.0041184367280937785,0.0017849412789798622
30.5,0.004133887039873697,0.0017916236914142375
30.6,0.004514184645276368,0.001956073756917503
30.700000000000003,0.0018196913551288012,0.0007895637508076161
30.8,0.0013196467431431807,0.0005727374760983257
30.900000000000002,0.0043478322049986615,0.0018841465200810207
31.0,0.00286641894468673,0.0012430891732434512
31.1,0.0027197043183444652,0.0011795492913011572
31.200000000000003,0.004028028385274544,0.0017458367165258154
31.3,0.0018083472078004581,0.0007846459711681281
31.400000000000002,0.000476874479570695,0.00020705458943614906
31.5,0.00379017250747872,0.0016429394565525102
31.6,0.0028527994096205654,0.0012371911503584003
31.700000000000003,0.0054903107742571775,0.0023778899526029637
31.8,0.0030318453634325332,0.0013147217004394328
31.900000000000002,0.003407984247015708,0.0014775524428043167
32.0,0.0010961942079158267,0.0004758103529356676
32.1,0.002603048466716455,0.0011290207740033717
32.2,0.0024728074702107267,0.001072601017102772
32.300000000000004,0.0046783640333956525,0.002027049734315046
32.4,0.001984301835968258,0.0008609174599485956
32.5,0.0004906043768952935,0.00021301452502558958
32.6,0.002411783845092002,0.0010461633620100711
32.7,0.00409148334051124,0.0017732834265019796
32.800000000000004,0.0012848134570254445,0.0005576292465405921
32.9,0.0011627277349851818,0.0005046728974965439
33.0,0.00048317920574435447,0.00020979138348864614
33.1,0.0015223566499140704,0.0006606483488373744
33.2,0.0015158285589572406,0.0006578175352254363
33.300000000000004,0.00464737622917932,0.0020136543628141677
33.4,0.0012968575804365027,0.0005628531996132607
33.5,0.004645961712647503,0.0020130428874136665
33.6,0.0002973553175394475,0.0001291205771780934
33.7,0.005176530423366826,0.0022423398224317745
33.800000000000004,0.0025341309441335854,0.0010991669564358272
33.9,0.004057258126117684,0.0017584799197222845
34.0,0.002698176664470269,0.001170225208400625
34.1,0.004529645666169971,0.001962758166642656
34.2,0.0035650520585111516,0.0015455291248248648
34.300000000000004,0.005450984584865823,0.002360903731186596
34.4,0.0019372864384550952,0.0008405388904200467
34.5,0.004740846530442015,0.002054058338143299
34.6,0.005909961494534695,0.0025591089742967787
34.7,0.0012024388726002819,0.0005218988543061493
34.800000000000004,0.004664264639316278,0.002020954916079895
34.9,0.00791993077510607,0.0034260330978849256
35.0,0.006377108330543975,0.0027607494855381534
35.1,0.004933746090805098,0.0021374302583458127
35.2,0.004224941756893927,0.0018310036673560566
35.300000000000004,0.003465491522901262,0.0015024419965253936
35.4,0.0026064050036240863,0.0011304747123485382
35.5,0.003893149348183205,0.001687490579963465
35.6,0.008645851554457363,0.0037387066591954322
35.7,0.010038692553127856,0.004338011050411968
35.800000000000004,0.00566161784635142,0.0024518751301946273
35.9,0.010429405435965064,0.004505976534557599
36.0,0.00800530370399182,0.003462817192162815
36.1,0.018904976823703387,0.008133683549714414
36.2,0.0020620810777584584,0.0008946283518931212
36.300000000000004,0.00924717251183374,0.003997541372687998
36.4,0.005633763573241105,0.0024398461092743455
36.5,0.003797861111188151,0.0016462659539301264
36.6,0.015989021521554257,0.006889015114860322
36.7,0.0073723677555628826,0.003190033978643405
36.800000000000004,0.008200495396831837,0.0035469065003241192
36.9,0.005022535583321501,0.002175800034870402
37.0,0.011397559032262156,0.0049219011453507855
37.1,0.0032438490477932937,0.001406505726792528
37.2,0.006990942018070102,0.003025564049882252
37.300000000000004,0.003702416686980325,0.0016049698333252594
37.4,0.007374103994644318,0.0031907824986809265
37.5,0.008512207098607743,0.0036811593097961647
