Frequency (Hz),Power,Log Power
0.0,0.0031180559361648486,0.0013520477008724947
0.1,0.0031180603095632376,0.0013520495943114914
0.2,0.0031180735183833908,0.0013520553129978995
0.30000000000000004,0.0031180955267065,0.0013520648413809018
0.4,0.003118126317177795,0.0013520781719464935
0.5,0.003118165945196045,0.0013520953286789278
0.6000000000000001,0.003118214398781964,0.001352116306391473
0.7000000000000001,0.0031182716571068084,0.001352141096065725
0.8,0.003118337788182705,0.0013521697271466572
0.9,0.003118412742001213,0.001352202177982539
1.0,0.0031184965477135903,0.0013522384611934256
1.1,0.003118589181150875,0.0013522785663145735
1.2000000000000002,0.0031186907232407446,0.0013523225283820154
1.3,0.0031188011474222272,0.001352370335895159
1.4000000000000001,0.003118920472947763,0.001352421997188131
1.5,0.0031190487365887554,0.0013524775281793576
1.6,0.0031191859097909032,0.0013525369165049528
1.7000000000000002,0.003119332010671337,0.0013526001700070076
1.8,0.003119487145329812,0.001352667334619191
1.9000000000000001,0.003119651237854394,0.0013527383774740794
2.0,0.0031198243423703766,0.0013528133220029157
2.1,0.0031200065508361556,0.001352892208016411
2.2,0.003120197764578448,0.0013529749927926385
2.3000000000000003,0.003120398073882155,0.0013530617154174352
2.4000000000000004,0.003120607499983163,0.0013531523850825787
2.5,0.0031208261037235095,0.0013532470281265425
2.6,0.0031210538477147946,0.0013533456283599031
2.7,0.0031212908001999377,0.001353448215325001
2.8000000000000003,0.003121537015882164,0.0013535548127026392
2.9000000000000004,0.0031217924625745754,0.001353665406554669
3.0,0.0031220572020520185,0.0013537800236229963
3.1,0.0031223313389902234,0.0013538987092230684
3.2,0.0031226148880264906,0.0013540214696886078
3.3000000000000003,0.003122907691270598,0.0013541482366588144
3.4000000000000004,0.003123210062437117,0.001354279145950508
3.5,0.0031235220681716394,0.0013544142264135283
3.6,0.003123843323474569,0.0013545533113616692
3.7,0.0031241740145675715,0.0013546964814140686
3.8000000000000003,0.003124514933548909,0.0013548440794991475
3.9000000000000004,0.00312486488060806,0.0013549955861646245
4.0,0.0031252251608900506,0.0013551515664575243
4.1000000000000005,0.0031255948123822272,0.0013553116038783064
4.2,0.003125973830261592,0.001355475696334205
4.3,0.003126364286971746,0.0013556447410664014
4.4,0.003126763277125707,0.0013558174802086832
4.5,0.00312717153555069,0.0013559942318931237
4.6000000000000005,0.003127591464013643,0.001356176035936749
4.7,0.00312802104480836,0.0013563620187871024
4.800000000000001,0.0031284601729442687,0.001356552134984144
4.9,0.0031289091797909994,0.0013567465279856474
5.0,0.003129369112975642,0.0013569456513450857
5.1000000000000005,0.003129837871739181,0.001357148595554547
5.2,0.0031303226908443037,0.0013573584928213106
5.300000000000001,0.003130810996933218,0.0013575698996380274
5.4,0.003131314121023595,0.0013577877216398818
5.5,0.0031318273969386484,0.0013580099386492166
5.6000000000000005,0.0031323458882886366,0.0013582344135066704
5.7,0.0031328852538953997,0.0013584679255101131
5.800000000000001,0.003133424690416563,0.0013587014680895265
5.9,0.0031339783053944362,0.0013589411489312974
6.0,0.003134546936459398,0.0013591873306668112
6.1000000000000005,0.003135126500992766,0.001359438245767639
6.2,0.0031357081180129224,0.0013596900493209267
6.300000000000001,0.0031363101748415547,0.0013599507018706059
6.4,0.003136919917623075,0.0013602146817925432
6.5,0.003137541474676681,0.0013604837763793137
6.6000000000000005,0.0031381609685312995,0.001360751977566542
6.7,0.0031388125177405986,0.0013610340564918408
6.800000000000001,0.0031394700636593127,0.0013613187314211596
6.9,0.0031401432077470728,0.001361610159157279
7.0,0.003140836438085098,0.0013619102827327357
7.1000000000000005,0.003141511774273452,0.001362202659107648
7.2,0.0031422072860304217,0.001362503769977692
7.300000000000001,0.0031429501957620314,0.001362825400824474
7.4,0.003143663013390191,0.0013631340035539351
7.5,0.0031443988607378214,0.0013634525763937097
7.6000000000000005,0.0031450787442829646,0.0013637469204306302
7.7,0.003145942990705603,0.0013641210809569898
7.800000000000001,0.0031466888097605424,0.0013644439701455723
7.9,0.003147470183009799,0.0013647822516373628
8.0,0.0031482416588408846,0.00136511624796138
8.1,0.0031491514019825442,0.0013655101042538316
8.200000000000001,0.0031498992168693674,0.0013658338564669099
8.3,0.003150773165848732,0.0013662122157271641
8.4,0.0031516613281822063,0.0013665967280457687
8.5,0.0031525787436167936,0.0013669939045586413
8.6,0.0031534183214090364,0.0013673573825154482
8.700000000000001,0.0031543285204755447,0.001367751434158486
8.8,0.0031558554348289705,0.0013684124789792957
8.9,0.003155620501282398,0.0013683107696045218
9.0,0.003156965497970434,0.0013688930563766463
9.1,0.003157634241827558,0.0013691825740495152
9.200000000000001,0.003158946378989483,0.0013697506338805308
9.3,0.003159924569228937,0.0013701741185313582
9.4,0.003160623609495215,0.0013704767514586586
9.5,0.003161739845262348,0.0013709599988599806
9.600000000000001,0.0031625288776527117,0.0013713015911125373
9.700000000000001,0.003163955774099804,0.0013719193303070463
9.8,0.003164869355952396,0.001372314842301279
9.9,0.0031661222532935324,0.0013728572517081588
10.0,0.0031671262784796757,0.0013732919178817222
10.100000000000001,0.003167912757972026,0.0013736324030918616
10.200000000000001,0.003169379566936449,0.001374267417993624
10.3,0.00317019250152037,0.0013746193554311733
10.4,0.0031713681389232687,0.0013751283144706058
10.5,0.003172792528760959,0.0013757449630584077
10.600000000000001,0.0031739986395109086,0.001376267113312361
10.700000000000001,0.0031746614269985264,0.0013765540474372725
10.8,0.0031757164347854332,0.0013770107812812466
10.9,0.0031774215589294263,0.0013777489624047195
11.0,0.0031780783742503585,0.0013780333100883299
11.100000000000001,0.003180111723128322,0.001378913583811967
11.200000000000001,0.0031814986492742043,0.0013795140083504656
11.3,0.0031823703059687255,0.0013798913633242436
11.4,0.003183433948825931,0.0013803518319213312
11.5,0.0031849970328572,0.001381028515983013
11.600000000000001,0.0031862032343649544,0.0013815506991750616
11.700000000000001,0.0031882404281502186,0.001382432630284465
11.8,0.003188257632096519,0.0013824400781178485
11.9,0.003190202119158209,0.0013832818734400387
12.0,0.0031925725506136184,0.0013843080637700993
12.100000000000001,0.003191818504842653,0.0013839816278998053
12.200000000000001,0.0031944006228027994,0.0013850994581271175
12.3,0.0031965317311531322,0.0013860220386491089
12.4,0.003197952922631589,0.001386637287167346
12.5,0.0031987640272574396,0.001386988422374359
12.600000000000001,0.003199439612481553,0.0013872808896765129
12.700000000000001,0.003202309545668439,0.0013885233089945938
12.8,0.003201860955158699,0.0013883291104519176
12.9,0.0032020435099727206,0.0013884081399515706
13.0,0.00320703104048511,0.0013905672778934035
13.100000000000001,0.003208758550402051,0.001391315126896914
13.200000000000001,0.003213475566397986,0.0013933571437597626
13.3,0.00321275619906669,0.0013930457271151026
13.4,0.003212643607173638,0.0013929969856688435
13.5,0.003212427489385971,0.001392903427465274
13.600000000000001,0.0032172862616420845,0.0013950068033924572
13.700000000000001,0.003218221341393528,0.001395411600830139
13.8,0.003221101989257724,0.001396658635272801
13.9,0.003226123391188465,0.0013988323950631797
14.0,0.0032180007877982324,0.0013953161228793484
14.100000000000001,0.003226694811621585,0.0013990797616981036
14.200000000000001,0.0032219169277666053,0.00139701142206432
14.3,0.0032312919310633855,0.001401069839356756
14.4,0.0032295228423590287,0.0014003040078423078
14.5,0.0032331412334075105,0.001401870393595505
14.600000000000001,0.003225743387795851,0.0013986678923613612
14.700000000000001,0.0032348795579192663,0.0014026229047100095
14.8,0.003243270637890013,0.001406255338711967
14.9,0.0032316837878064203,0.0014012394724108063
15.0,0.003242360779950236,0.0014058614696741611
15.100000000000001,0.0032429948535164675,0.0014061359542599603
15.200000000000001,0.003252064638429631,0.0014100621613255646
15.3,0.003241252111212367,0.0014053815368084786
15.4,0.003246855334352376,0.0014078071169866162
15.5,0.0032504919331201496,0.001409381357570534
15.600000000000001,0.003256194470549789,0.0014118499070703279
15.700000000000001,0.0032539100133508886,0.0014108609988625518
15.8,0.0032478596449845446,0.001408241871748172
15.9,0.0032540375871644425,0.0014109162237654089
16.0,0.003269778480023977,0.0014177301801755516
16.1,0.0032678002303624817,0.001416873836470957
16.2,0.003264968573025425,0.0014156480671486272
16.3,0.0032705674402535257,0.0014180717044063994
16.400000000000002,0.003277694177530872,0.001421156706379871
16.5,0.0032791175676765596,0.0014217728568743661
16.6,0.0032734853407010264,0.0014193347995887162
16.7,0.0032757825056143513,0.0014203291893721108
16.8,0.00326823092944953,0.001417060277415916
16.900000000000002,0.0033128580935849147,0.0014363780425798952
17.0,0.003287674926612158,0.001425477108115197
17.1,0.003357681780702319,0.0014557800117523435
17.2,0.003327247820116588,0.0014426067417975493
17.3,0.0032725656796640285,0.0014189366988688929
17.400000000000002,0.003327208200707144,0.0014425895923667767
17.5,0.0033429050574742703,0.0014493839909400712
17.6,0.003408355620992727,0.0014777131806514073
17.7,0.0030030067621581035,0.0013022349329369221
17.8,0.0031806731280788216,0.0013791566259148311
17.900000000000002,0.0032555086900100307,0.0014115530429117842
18.0,0.0032467410845135295,0.0014077576594906196
18.1,0.003219227753975913,0.0013958472779365884
18.2,0.0032228412452349484,0.0013974115586485871
18.3,0.0034392221923502738,0.0014910726223599936
18.400000000000002,0.003105936266658813,0.0013468005244759802
18.5,0.0033872320862634456,0.0014685704113252271
18.6,0.003222986011883729,0.001397474228027369
18.7,0.0032014205958569167,0.0013881384751826937
18.8,0.003164851545353562,0.0013723071316595209
18.900000000000002,0.0033428682194151646,0.001449368045677508
19.0,0.0034770319734896897,0.0015074366129137937
19.1,0.0033197546681674847,0.0014393632868805065
19.200000000000003,0.0032726568156460625,0.0014189761496160604
19.3,0.0031697064195304932,0.0013744089197755601
19.400000000000002,0.0033657154088756708,0.0014592572826011908
19.5,0.0032105758076909014,0.0013921018266651475
19.6,0.0031651528405851385,0.0013724375696794323
19.700000000000003,0.003304616505467597,0.0014328105701674498
19.8,0.003203477826509663,0.0013890290670281157
19.900000000000002,0.0036645262189205926,0.001588574603489269
20.0,0.0048769996466028484,0.0021129058919163836
20.1,0.003335081547889442,0.001445997591064746
20.200000000000003,0.0033521298102549314,0.0014533768838909389
20.3,0.003452551879539536,0.0014968417521822543
20.400000000000002,0.0037142426787524874,0.0016100868208183566
20.5,0.003314497892841913,0.0014370878462877338
20.6,0.0032984581587130607,0.00143014483517788
20.700000000000003,0.0020709369964598736,0.0008984664969558276
20.8,0.003965593226036925,0.0017188294144601904
20.900000000000002,0.004113854194989234,0.0017829592683833414
21.0,0.0035512651944320955,0.0015395627949804948
21.1,0.003907549941575326,0.0016937203798122107
21.200000000000003,0.0035763296125388374,0.001550409478075904
21.3,0.003765169013626637,0.0016321214440332878
21.400000000000002,0.004066101174939489,0.0017623048713007624
21.5,0.0038950244679708786,0.0016883017752751127
21.6,0.0036651745489497127,0.0015888551415135246
21.700000000000003,0.0034989454573784652,0.0015169204385694884
21.8,0.0033965043490315236,0.0014725836913632568
21.900000000000002,0.0036235078283748472,0.0015708252218650325
22.0,0.003831849761232689,0.0016609709396982837
22.1,0.0034530537039113435,0.0014970589418247262
22.200000000000003,0.003766391347798198,0.0016326503054431684
22.3,0.003371850137255491,0.0014619126160429386
22.400000000000002,0.0033607180141191767,0.0014570942164945466
22.5,0.004233804996454418,0.0018348367120118814
22.6,0.0035079169242561007,0.0015208030945111119
22.700000000000003,0.003963163033885554,0.0017177781629773069
22.8,0.0032535594716757545,0.0014107092542840205
22.900000000000002,0.002971231333812683,0.0012884761389009792
23.0,0.004240882359649673,0.001837897402596129
23.1,0.0041050839664300625,0.0017791659948553206
23.200000000000003,0.0034240966887551703,0.00148452616482528
23.3,0.0038821876727958187,0.001682748420773216
23.400000000000002,0.004224558824684811,0.0018308380616533658
23.5,0.00318989050866954,0.0013831469730628207
23.6,0.0034470748471188296,0.0014944712848944562
23.700000000000003,0.003958139714521678,0.0017156051695660078
23.8,0.003511638549640647,0.0015224137229315554
23.900000000000002,0.003267797733743335,0.001416872755734673
24.0,0.005093865444574288,0.002206622294849107
24.1,0.003645651383018574,0.0015804072189258033
24.200000000000003,0.0034208944191067236,0.0014831401803132693
24.3,0.0032796547578898736,0.0014220053930438915
24.400000000000002,0.0037552793011092394,0.001627842486299591
24.5,0.003183601744448733,0.0013804244733789934
24.6,0.0033054662995430336,0.0014331784153018175
24.700000000000003,0.002993542682989386,0.0012981370222397428
24.8,0.0016129221300430177,0.000699918875111208
24.900000000000002,0.006520342603211451,0.0028225567617260723
25.0,0.004572083697669145,0.0019811052743438705
25.1,0.004521866363305081,0.0019593948797512915
25.200000000000003,0.004200558961523239,0.0018204587768638485
25.3,0.0036992822976649117,0.0016036136045400424
25.400000000000002,0.0034996851592442777,0.0015172405667785952
25.5,0.003759473075712169,0.0016296570016512135
25.6,0.003361708035943489,0.0014575227371606552
25.700000000000003,0.004309439927824239,0.0018675448286348568
25.8,0.004257594233812426,0.0018451245673820529
25.900000000000002,0.0037985964986727585,0.0016465841201885384
26.0,0.0045728065218133655,0.0019814177640391545
26.1,0.003898855993832761,0.0016899593264363144
26.200000000000003,0.003779149319769154,0.0016381701969874992
26.3,0.0036970922068819863,0.0016026659647475402
26.400000000000002,0.0032682658085995166,0.0014170753758927278
26.5,0.0036980256356103722,0.0016030698542881217
26.6,0.0039645969828463095,0.00171839846031405
26.700000000000003,0.004391842699594565,0.0019031768754732374
26.8,0.00372400444662623,0.0016143105940052264
26.900000000000002,0.003802359045162938,0.0016482119866966368
27.0,0.0035743296738467486,0.0015495440100712409
27.1,0.003928195892243806,0.0017026518100529146
27.200000000000003,0.004334865671180132,0.0018785395677308149
27.3,0.003318984529767178,0.0014390299265690007
27.400000000000002,0.003880468300832442,0.0016820045940526092
27.5,0.004222833163653299,0.0018300917687043307
27.6,0.0036862448769676838,0.0015979723564683627
27.700000000000003,0.004341996354305439,0.0018816230067767636
27.8,0.003610501365831341,0.0015651969444585136
27.900000000000002,0.004608022452665723,0.001996641963101038
28.0,0.004414977969984698,0.001913180346354383
28.1,0.00452007304038118,0.0019586195547221207
28.200000000000003,0.0035669727963979704,0.001546360326614444
28.3,0.004750274250799824,0.0020581334065883105
28.400000000000002,0.0038436759664815536,0.001666087359772823
28.5,0.003932904211825172,0.00170468860155518
28.6,0.0048970868734192555,0.0021215872375679973
28.700000000000003,0.0044475206922200425,0.001927251119942516
28.8,0.005016677335626107,0.0021732685373440004
28.900000000000002,0.005556511332246729,0.0024064825609182725
29.0,0.004092402392160397,0.0017736809389635423
29.1,0.003681544906954082,0.0015959386772866815
29.200000000000003,0.003848505261190591,0.0016681766601777616
29.3,0.005028371859715527,0.0021783220233666874
29.400000000000002,0.002275384471269221,0.0009870643699938044
29.5,0.0051726936198780125,0.0022406820979295246
29.6,0.002394191485707936,0.001038541412855487
29.700000000000003,0.0044943616419481774,0.0019475033394582516
29.8,0.004867406746745842,0.002108759948322578
29.900000000000002,0.002852635619334134,0.0012371202194865485
30.0,0.004220571030548925,0.0018291134668786315
30.1,0.0023726827928468217,0.0010292225172344707
30.200000000000003,0.005568339110545319,0.0024115908850953285
30.3,0.004917600464232784,0.0021304526711333803
30.400000000000002,0.0037996843872116015,0.0016470547960143035
30.5,0.0035117220208030027,0.0015224498471401243
30.6,0.005292609098457442,0.002292489637839064
30.700000000000003,0.0037432690837168967,0.0016226459982182106
30.8,0.004337355680086414,0.001879616296045517
30.900000000000002,0.0039521854347518755,0.0017130294461232822
31.0,0.0032380823744412395,0.0014040093829416555
31.1,0.004210275269911593,0.0018246608445340918
31.200000000000003,0.004033639223895388,0.0017482636900507701
31.3,0.004527081024853724,0.001961649378068504
31.400000000000002,0.003486272756971208,0.0015114359100260604
31.5,0.0018415489824045277,0.0007990390520438709
31.6,0.004219713040926377,0.0018287424126216378
31.700000000000003,0.004083181504083333,0.001769692661402289
31.8,0.0038752556803563387,0.0016797495265839801
31.900000000000002,0.0056846629098824646,0.002461827015678414
32.0,0.005978848122414937,0.0025888492683270132
32.1,0.0038333808149298996,0.0016616333291864741
32.2,0.0016570982987892098,0.0007190730242030019
32.300000000000004,0.0030406364218300026,0.0013185280515925412
32.4,0.004568564385435058,0.0019795838100453754
32.5,0.005842823069709065,0.0025301214688139982
32.6,0.004358343227875565,0.001888691614122646
32.7,0.0041171384929631965,0.0017843797747815002
32.800000000000004,0.004808462718897522,0.002083284132613267
32.9,0.004978313329382847,0.002156690111731407
33.0,0.005214204760635787,0.0022586170132294103
33.1,0.0039049637665515744,0.0016926015885561979
33.2,0.004063555040218367,0.0017612035756188658
33.300000000000004,0.005262076351649452,0.0022792990456576793
33.4,0.0017300230804018616,0.0007506903086752883
33.5,0.003964440970905551,0.001718330972744842
33.6,0.00471991408066778,0.002045010291415368
33.7,0.005376293078253973,0.0023286402846520973
33.800000000000004,0.005023224465419932,0.0021760977173411167
33.9,0.007050369580627851,0.0030511931790869868
34.0,0.002332076410878412,0.00101162877676939
34.1,0.0044089046690482785,0.0019105543310959903
34.2,0.0014580875732788396,0.0006327781762355503
34.300000000000004,0.0032067199398037234,0.0013904326004779378
34.4,0.0064120875242151786,0.002775844231501228
34.5,0.007297700380948284,0.0031578424756265756
34.6,0.009143034941410175,0.003952727072591905
34.7,0.003757490938326741,0.0016287993936266204
34.800000000000004,0.0038418457192894765,0.0016652955363050238
34.9,0.004974180349033717,0.0021549040689616762
35.0,0.0027786306959218686,0.0012050705297694077
35.1,0.005422406089387539,0.002348559360878918
35.2,0.008017232702667798,0.0034679567163557333
35.300000000000004,0.005439898063727973,0.0023561149930255735
35.4,0.001896037546115906,0.000822658993808268
35.5,0.0052214170448894445,0.0022617330098017915
35.6,0.006538068516044794,0.002830205090346734
35.7,0.0022363235301562693,0.0009701386008723452
35.800000000000004,0.00039096972012585377,0.00016976280814516318
35.9,0.004938491735937236,0.002139481142432074
36.0,0.009843098081198237,0.004253901573798833
36.1,0.025300020509685106,0.010850966061373323
36.2,0.013722215995501028,0.005918964279438842
36.300000000000004,0.012106552763895658,0.0052262366553779685
36.4,0.007413898186624162,0.003207938048517622
36.5,0.008473938524639154,0.0036646794439895215
36.6,0.010735095885011871,0.004637346025875189
36.7,0.0074763008474182345,0.0032348389002470044
36.800000000000004,0.006411634564520964,0.0027756487668973923
36.9,0.005836566159946119,0.0025274199037452452
37.0,0.009195599229723878,0.003975348034187271
37.1,0.008974477905183824,0.003880180860170438
37.2,0.006792784390998575,0.0029400943312293663
37.300000000000004,0.006819099206377508,0.002951445455251954
37.4,0.004215373962866635,0.001826865889282555
37.5,0.004519745172137942,0.001958477804053436
37.6,0.01298404656873553,0.005602605733702413
37.7,0.0052219516888411255,0.0022619639965797836
