Frequency (Hz),Power,Log Power
0.0,0.018759362659763634,0.008071613044020057
0.1,0.018759359624133328,0.008071611749938661
0.2,0.01875935289638592,0.008071608881917292
0.30000000000000004,0.0187593379253829,0.008071602499817369
0.4,0.018759319802640114,0.008071594774138694
0.5,0.018759295749124338,0.008071584520186538
0.6000000000000001,0.018759268382220078,0.008071572853745079
0.7000000000000001,0.018759234287744866,0.008071558319356954
0.8,0.018759197021735168,0.008071542432951035
0.9,0.018759154048700807,0.008071524113654296
1.0,0.018759108185907987,0.008071504562459838
1.1,0.018759058747809795,0.008071483487120605
1.2000000000000002,0.018759004264971613,0.008071460261220095
1.3,0.018758949223944343,0.008071436797363602
1.4000000000000001,0.018758889052615524,0.00807141114647056
1.5,0.01875883048395505,0.008071386178789679
1.6,0.018758766781809846,0.008071359022714908
1.7000000000000002,0.018758704305127067,0.00807133238905023
1.8,0.01875863848139554,0.00807130432854463
1.9000000000000001,0.018758576666768466,0.008071277977109373
2.0,0.01875851227847183,0.008071250528523043
2.1,0.0187584506456122,0.0080712242545716
2.2,0.01875839060863772,0.008071198660940953
2.3000000000000003,0.018758334595275844,0.008071174782566158
2.4000000000000004,0.018758280853435887,0.008071151872535069
2.5,0.018758231874486136,0.008071130992912756
2.6,0.018758187984591706,0.008071112282743103
2.7,0.018758149754432227,0.008071095985305879
2.8000000000000003,0.018758119252193416,0.008071082982264706
2.9000000000000004,0.018758095210945132,0.008071072733530082
3.0,0.018758081724567006,0.008071066984314723
3.1,0.018758076267167113,0.008071064657836342
3.2,0.018758083459494358,0.008071067723910681
3.3000000000000003,0.018758100837808673,0.008071075132250385
3.4000000000000004,0.018758133881349653,0.008071089218643692
3.5,0.018758176246137893,0.00807110727866482
3.6,0.018758239049370292,0.00807113405155074
3.7,0.018758315385803685,0.008071166593609572
3.8000000000000003,0.018758409561350668,0.008071206740441109
3.9000000000000004,0.018758522168604696,0.008071254744664542
4.0,0.018758657004917807,0.008071312225079817
4.1000000000000005,0.0187588132708707,0.008071378840892462
4.2,0.018758989416503842,0.0080714539313544
4.3,0.018759190606142496,0.008071539697999994
4.4,0.018759421179053087,0.008071637990641095
4.5,0.01875967656584137,0.008071746861348586
4.6000000000000005,0.01875995833247256,0.0080718669776812
4.7,0.018760276101955273,0.008072002441889638
4.800000000000001,0.018760619107325373,0.008072148664036218
4.9,0.018760994223209662,0.008072308574741052
5.0,0.01876141705576462,0.008072488826839752
5.1000000000000005,0.01876186910456604,0.008072681533643525
5.2,0.018762349360898507,0.008072886265124216
5.300000000000001,0.018762889586772014,0.008073116561280848
5.4,0.018763462542091342,0.008073360809737647
5.5,0.018764074255346163,0.008073621580388579
5.6000000000000005,0.01876473406353166,0.00807390285352
5.7,0.018765447479718696,0.008074206979285722
5.800000000000001,0.01876620490750094,0.008074529866742116
5.9,0.018767012851862625,0.008074874288884426
6.0,0.018767869748828533,0.008075239578948411
6.1000000000000005,0.01876878026742034,0.008075627727254956
6.2,0.01876975177577018,0.00807604187472632
6.300000000000001,0.018770807866759685,0.008076492078759785
6.4,0.018771864749427693,0.00807694261981291
6.5,0.01877305710941032,0.00807745091325498
6.6000000000000005,0.018774283992199617,0.008077973922870133
6.7,0.01877560076824931,0.008078535252510784
6.800000000000001,0.018776937223233526,0.008079104970360159
6.9,0.018778346779250565,0.008079705849663832
7.0,0.018779863301689775,0.008080352326730118
7.1000000000000005,0.0187814758139537,0.008081039722161888
7.2,0.01878311827347975,0.008081739882648516
7.300000000000001,0.018784847358712185,0.0080824769693989
7.4,0.01878670250791199,0.008083267794202709
7.5,0.018788703312415354,0.008084120708261954
7.6000000000000005,0.018790705462629176,0.00808497419430139
7.7,0.018792737858148906,0.008085840571736998
7.800000000000001,0.0187948809709481,0.008086754144291325
7.9,0.018797336643976398,0.008087800953595278
8.0,0.01879964372663542,0.008088784419194918
8.1,0.018802171318581546,0.00808986188116676
8.200000000000001,0.018804744694081894,0.008090958857007327
8.3,0.01880736996283902,0.008092077950996316
8.4,0.018810299155679354,0.00809332659769412
8.5,0.018812940160714782,0.008094452393564022
8.6,0.018816568337510907,0.0080959989918591
8.700000000000001,0.01882014556863546,0.008097523867934636
8.8,0.01882350444996922,0.008098955662575076
8.9,0.018825491365410514,0.008099802625338468
9.0,0.01882989672765223,0.008101680493915873
9.1,0.01883244236734529,0.008102765617049762
9.200000000000001,0.018836616411072548,0.008104544869819092
9.3,0.018842027302144623,0.008106851337663807
9.4,0.018845177686054048,0.008108194227136179
9.5,0.018848803742781455,0.008109739872794555
9.600000000000001,0.018853895687883752,0.008111910359844187
9.700000000000001,0.01885781780380489,0.008113582189368123
9.8,0.0188606633537205,0.008114795121024577
9.9,0.018866926109859926,0.008117464644121724
10.0,0.01886944188793722,0.008118536999264203
10.100000000000001,0.018878259291487925,0.00812229541322748
10.200000000000001,0.018885283288662288,0.008125289365322499
10.3,0.01888719030499411,0.008126102220222156
10.4,0.018890994477651052,0.008127723722705038
10.5,0.01890175601426276,0.008132310721030786
10.600000000000001,0.018912070623203544,0.0081367071753952
10.700000000000001,0.018910565169225638,0.008136065499967822
10.8,0.018919518505456777,0.008139881700887572
10.9,0.01892408467358166,0.008141827936228708
11.0,0.01893418493526504,0.008146132934255668
11.100000000000001,0.018938090404622302,0.00814779753690189
11.200000000000001,0.018943901643091503,0.008150274411235153
11.3,0.018954552921420956,0.008154814177574759
11.4,0.018961468379752027,0.008157761644851765
11.5,0.018963778460919872,0.008158746230037537
11.600000000000001,0.01897664870211507,0.008164231645270904
11.700000000000001,0.018987142884103306,0.00816870431092714
11.8,0.018993561119991183,0.008171439768062911
11.9,0.01900002106415691,0.008174192983901422
12.0,0.019007431827622538,0.008177351415609047
12.100000000000001,0.0190165323263941,0.008181229972945517
12.200000000000001,0.019029304246328142,0.008186673201209792
12.3,0.019037961956729094,0.008190362967406876
12.4,0.019050268117239557,0.008195607585892262
12.5,0.019056213835504505,0.00819814149926366
12.600000000000001,0.019072290246525497,0.00820499278129159
12.700000000000001,0.019077583698773205,0.008207248667505615
12.8,0.019088131146612466,0.008211743589936572
12.9,0.01909823080303687,0.00821604763704061
13.0,0.019112040211721925,0.00822193255487821
13.100000000000001,0.01912406122966048,0.008227055280114876
13.200000000000001,0.019135888863862187,0.008232095536405682
13.3,0.019145191755713355,0.008236059851862574
13.4,0.01915934460406805,0.008242090848540615
13.5,0.019169730295254827,0.008246516481701398
13.600000000000001,0.019183674636254353,0.00825245848404042
13.700000000000001,0.01919401237531901,0.008256863578405159
13.8,0.019207831827246297,0.008262752222719515
13.9,0.019225194377935996,0.008270150513327561
14.0,0.01923857871632558,0.008275853576961397
14.100000000000001,0.019255105606132205,0.008282895577730322
14.200000000000001,0.019268591199816668,0.008288641617309448
14.3,0.019280678663230293,0.008293791866791635
14.4,0.01929923013526118,0.008301696194603065
14.5,0.01931309261911724,0.008307602565497618
14.600000000000001,0.019322489924288092,0.008311606417697064
14.700000000000001,0.019343934195426918,0.008320742908605221
14.8,0.019358343059275664,0.008326881804048582
14.9,0.019366968325108463,0.008330556556439482
15.0,0.019387783766710753,0.008339424745629214
15.100000000000001,0.01942268107203033,0.00835429195118509
15.200000000000001,0.019428387947144254,0.00835672318749117
15.3,0.01945191194189261,0.00836674470872765
15.4,0.01947063255137423,0.008374719761451415
15.5,0.019468823763938044,0.008373949217333415
15.600000000000001,0.019497739099318807,0.008386266997161492
15.700000000000001,0.019520960850494786,0.00839615908730911
15.8,0.01954809544122564,0.008407717698320848
15.9,0.019552653079693085,0.008409659100420077
16.0,0.019570466476805,0.008417246930694487
16.1,0.019601881513478643,0.008430628219520469
16.2,0.019621184225410555,0.00843885003832873
16.3,0.019664092108024743,0.008457125712525427
16.400000000000002,0.01965987783912268,0.008455330770911049
16.5,0.019686212585683833,0.00846654714577571
16.6,0.019715130545623828,0.008478863417384505
16.7,0.01970640824519952,0.00847514859249737
16.8,0.01972262402526075,0.008482054862526024
16.900000000000002,0.019795679307628235,0.008513167607106685
17.0,0.01981938521210185,0.008523262986064203
17.1,0.01984880974229208,0.008535793368335872
17.2,0.01984873882242571,0.008535763167675417
17.3,0.019841426489903276,0.008532649257809664
17.400000000000002,0.01987757193958035,0.008548041347949937
17.5,0.019898737531988477,0.00855705419896382
17.6,0.019942930456671067,0.008575872074520555
17.7,0.01998983925023154,0.00859584550747103
17.8,0.02002114259625607,0.008609173740079143
17.900000000000002,0.020004566464652835,0.008602116061879585
18.0,0.020082035003003224,0.008635099131047997
18.1,0.01981064195423807,0.008519539616047568
18.2,0.020288870558600514,0.008723149338507973
18.3,0.020215730664066577,0.008692015615410609
18.400000000000002,0.02030449358665309,0.008729799360009668
18.5,0.020246514577426992,0.008705119787012912
18.6,0.020337945240775465,0.008744037884624089
18.7,0.020516821708340727,0.008820167812400356
18.8,0.01979961193689368,0.008514842369935115
18.900000000000002,0.02017331602380547,0.00867395979978087
19.0,0.020265204120236253,0.008713075404456476
19.1,0.020138824151822755,0.008659276135081629
19.200000000000003,0.020248527372789715,0.008705976584898923
19.3,0.020256518920571242,0.008709378375166197
19.400000000000002,0.02023381689379299,0.008699714653868268
19.5,0.020385578834134794,0.008764312073174227
19.6,0.02039498441788125,0.008768315240583573
19.700000000000003,0.020752993168228328,0.00892066208466406
19.8,0.020313995700876376,0.008733843933549854
19.900000000000002,0.021580381079341765,0.009272543935471386
20.0,0.0207914833772888,0.008937038005537964
20.1,0.020971604932762247,0.009013663739703397
20.200000000000003,0.021032832244411527,0.009039707447655197
20.3,0.020554938409469824,0.008836388577680779
20.400000000000002,0.02117122265679646,0.009098567572229729
20.5,0.021188522790651775,0.00910592509353473
20.6,0.0208749381834922,0.00897254229895229
20.700000000000003,0.02028804327491046,0.008722797198150807
20.8,0.02082708606744308,0.008952184862162283
20.900000000000002,0.021450325035377728,0.009217250961030012
21.0,0.021676356979216344,0.009313343315172947
21.1,0.02166344531436419,0.009307854786254493
21.200000000000003,0.02134222264319887,0.009171286163967342
21.3,0.02142060462852612,0.009204614422412678
21.400000000000002,0.02191247984327283,0.009413702893890033
21.5,0.02149357813298894,0.00923564067950588
21.6,0.0206285398874967,0.008867708364579643
21.700000000000003,0.021403428756791652,0.009197311408355259
21.8,0.02166957119653562,0.00931045880312526
21.900000000000002,0.02218693935705577,0.009530327605915729
22.0,0.022585514757198038,0.009699636517279654
22.1,0.02277996358798385,0.009782211543964461
22.200000000000003,0.021183884100393003,0.00910395233129425
22.3,0.02267505239336675,0.009737661697992688
22.400000000000002,0.023243944158150145,0.009979183049551275
22.5,0.022392926728905048,0.00961783622391839
22.6,0.021870981728189957,0.009396066580913397
22.700000000000003,0.022134191533079505,0.009507916167180178
22.8,0.022673525526644683,0.009737013290382172
22.900000000000002,0.023216404339999767,0.009967494192677173
23.0,0.02253648641232781,0.00967881356429604
23.1,0.023027756117599604,0.009887416864834641
23.200000000000003,0.022728160917621875,0.009760214453245198
23.3,0.02106629533659364,0.009053940680593918
23.400000000000002,0.022969365892318048,0.009862628410959563
23.5,0.022183802212819122,0.009528994731791491
23.6,0.022115145011537992,0.009499823417379758
23.700000000000003,0.02375555695397584,0.010196272129059028
23.8,0.022754348528131633,0.009771334699628802
23.900000000000002,0.02344348214913615,0.010063864518324566
24.0,0.02593740691221272,0.011120865003998413
24.1,0.021628325872317763,0.009292925758393775
24.200000000000003,0.02296089731717187,0.009859033121792815
24.3,0.023782043895506172,0.010207508193827724
24.400000000000002,0.023355688874074083,0.010026608166581978
24.5,0.023551741763575003,0.010109801658439452
24.6,0.024386152850021662,0.010463699256104261
24.700000000000003,0.024943621355940873,0.010699976994294104
24.8,0.02818655687704547,0.01207192134361469
24.900000000000002,0.0195769957134853,0.008420028104213167
25.0,0.022376689215956928,0.009610938760049209
25.1,0.023740649288233114,0.01018994799820056
25.200000000000003,0.02451216296448072,0.010517118693291643
25.3,0.023341648129663665,0.010020649476248011
25.400000000000002,0.022326558010228943,0.009589643047771448
25.5,0.022840748717589038,0.009808021457032134
25.6,0.023478824079368122,0.010078861477646809
25.700000000000003,0.024165967728850685,0.010370340456462826
25.8,0.022576450373243222,0.009695786834955665
25.900000000000002,0.022151719238173904,0.009515363447976884
26.0,0.027457315367879705,0.011763788615988839
26.1,0.025524139487886153,0.010945887544949087
26.200000000000003,0.02382297024125053,0.010224869048094928
26.3,0.025063152251167512,0.010750622298437542
26.400000000000002,0.02403911536475027,0.010316545763470117
26.5,0.0251147780212364,0.01077249433865279
26.6,0.024932155188976853,0.01069511846276938
26.700000000000003,0.02433531025025119,0.010442143704577928
26.8,0.024894203093553956,0.010679036724378062
26.900000000000002,0.02543058461739537,0.01090626661762196
27.0,0.026242920448207915,0.011250174150997577
27.1,0.024050919100882168,0.01032155169326978
27.200000000000003,0.027944831467935298,0.011969807235157401
27.3,0.025835217755883048,0.011077604667831153
27.400000000000002,0.026678934621583987,0.011434651267755187
27.5,0.02324437769771823,0.00997936705631063
27.6,0.02644635742150116,0.011336257861920777
27.700000000000003,0.02392490812188953,0.010268107827207142
27.8,0.02626041171437222,0.01125757619537707
27.900000000000002,0.024273207516324478,0.010415812783438208
28.0,0.025846049205983292,0.01108219021343739
28.1,0.024656860873982542,0.01057845233928473
28.200000000000003,0.027572536234935698,0.011812488431007063
28.3,0.02439831529379368,0.010468855564441016
28.400000000000002,0.026585256515031276,0.01139502277283984
28.5,0.025773805925153208,0.011051604763453904
28.6,0.026925881659021645,0.011539099538764567
28.700000000000003,0.027472829426723817,0.011770346182108718
28.8,0.02688488930425168,0.011521763225477218
28.900000000000002,0.029500032773576775,0.012626364779580377
29.0,0.022259100743618344,0.009560985585034718
29.1,0.026082167490218747,0.011182139975361934
29.200000000000003,0.024512109851361954,0.010517096178444246
29.3,0.022830919707941415,0.009803848075038913
29.400000000000002,0.03221172838410005,0.01376878938182943
29.5,0.03031510229913761,0.012970065735813378
29.6,0.02546022441451856,0.010918819602187992
29.700000000000003,0.031059362225344795,0.01328367007957638
29.8,0.031136584535557052,0.013316195818241897
29.900000000000002,0.028669661135072386,0.012275931245197363
30.0,0.02985975110879101,0.012778085417066359
30.1,0.030237912543240587,0.012937527786224331
30.200000000000003,0.02808724751906897,0.012029972157556064
30.3,0.028048529756147186,0.012013616320576442
30.400000000000002,0.02799789946967381,0.011992227256862276
30.5,0.028729849648147555,0.012301341515757873
30.6,0.02664288164851304,0.011419400266048225
30.700000000000003,0.026777981788550616,0.01147654709498327
30.8,0.03163117899188222,0.013524459347540919
30.900000000000002,0.02639838040156498,0.011315958075350126
31.0,0.027602654323025298,0.011825217389125842
31.1,0.02961328129801122,0.012674136030398898
31.200000000000003,0.03400118835173013,0.014521037882007261
31.3,0.025787108076393832,0.011057236622436932
31.400000000000002,0.029843075880589157,0.012771053373901891
31.5,0.02815713157324753,0.012059492247116516
31.6,0.03234934524964265,0.013826686671644396
31.700000000000003,0.030923930443683113,0.013226620853480593
31.8,0.03260322467994851,0.013933476956139827
31.900000000000002,0.030788029329040994,0.013169366391741414
32.0,0.03285448650467574,0.014039140339068812
32.1,0.03482426337275724,0.014866603002917969
32.2,0.030080170829540072,0.012871027029362783
32.300000000000004,0.028923294290473592,0.012382999535926044
32.4,0.02767382019033328,0.011855293093166012
32.5,0.03400200442773565,0.014521380644830077
32.6,0.03279605265070252,0.014014569386855285
32.7,0.02975600137176399,0.01273433168458143
32.800000000000004,0.028231691795717207,0.012090985409143325
32.9,0.035757236410711955,0.015257976218231365
33.0,0.029464701984061346,0.012611460233941127
33.1,0.0278483061731579,0.011929024529787656
33.2,0.028091794699878374,0.01203189301706607
33.300000000000004,0.031816286442184975,0.013602378602368573
33.4,0.031473800348385025,0.013458201278022152
33.5,0.03395540316769871,0.0145018070597912
33.6,0.03141224929368935,0.013432284884412086
33.7,0.030838386682614648,0.013190582573892376
33.800000000000004,0.03178731856811344,0.0135901857685976
33.9,0.02603924181700679,0.01116397108640039
34.0,0.031522659298132326,0.013478772493422567
34.1,0.029487219731743564,0.012620959565577322
34.2,0.035452855058780805,0.015130329927752133
34.300000000000004,0.03554670472842729,0.015169691011622207
34.4,0.03754455924491779,0.016006757353893862
34.5,0.0320520014571068,0.013701580408343928
34.6,0.03456986054955275,0.014759822238850147
34.7,0.028049531667158616,0.01201403957317486
34.800000000000004,0.027201803907613634,0.011655773406275868
34.9,0.027202836260188937,0.011656209878252343
35.0,0.022358247277542143,0.009603104754822976
35.1,0.038226876663288625,0.016292267304798234
35.2,0.029179912892382684,0.012491301241060588
35.300000000000004,0.03224330890197793,0.013782076418266039
35.4,0.022239207073824055,0.00955253391649213
35.5,0.020400263627066737,0.00877056214058034
35.6,0.02977826771586142,0.012743722303149116
35.7,0.03721240902586194,0.015867703950784687
35.800000000000004,0.023262516166595918,0.009987065478404993
35.9,0.041078669998616764,0.017483548583896988
36.0,0.02903834110054786,0.012431556509942147
36.1,0.03878398758509801,0.016525246543488706
36.2,0.03361220530946908,0.014357629005552085
36.300000000000004,0.03648739888908475,0.015564026520373864
36.4,0.036241302419908236,0.01546089836953193
36.5,0.04394293242649172,0.018676758427090722
36.6,0.03167469342382542,0.013542777598781872
36.7,0.03614680631530373,0.015421292721683858
36.800000000000004,0.05404656454084238,0.02285979709706357
36.9,0.025209003124456213,0.010812411392525229
37.0,0.04427021285170177,0.01881289020481551
37.1,0.03676460454877892,0.015680161837137326
37.2,0.047731363268889715,0.020249944474656237
37.300000000000004,0.029167081281007114,0.012485886509695926
37.4,0.03952110484928979,0.016833311009040616
37.5,0.023848557401350765,0.010235722705324307
37.6,0.034373588271734735,0.014677422724729763
37.7,0.044265463628316425,0.018810915077904482
37.800000000000004,0.031184816459440764,0.013336509682402917
37.9,0.030398111047828927,0.013005053856714695
38.0,0.042457382835439275,0.018058309422559662
38.1,0.03764145528411768,0.01604731411832733
38.2,0.026605199676825224,0.011403459598652063
38.300000000000004,0.03701280899100953,0.015784120747534946
38.400000000000006,0.02886098201403327,0.012356697577909618
38.5,0.0502296836824143,0.021284289019873955
38.6,0.04880721715796404,0.020695667203285043
38.7,0.042539233417731345,0.018092407565425808
38.800000000000004,0.03940561067225091,0.016785056798387515
38.900000000000006,0.05369229761437892,0.02271380541327844
39.0,0.04529243849724526,0.01923780878023927
39.1,0.049309366527159046,0.02090354955452549
