Frequency (Hz),Power,Log Power
0.0,5.210704022151624e-05,2.26292104710452e-05
0.1,5.211976361708325e-05,2.263473588362787e-05
0.2,5.216893729386857e-05,2.2656090626538342e-05
0.30000000000000004,5.223999812425138e-05,2.2686950342015605e-05
0.4,5.234959015077305e-05,2.273454306556161e-05
0.5,5.248521545380108e-05,2.279344129896345e-05
0.6000000000000001,5.265265339854642e-05,2.2866154851995732e-05
0.7000000000000001,5.284766953778162e-05,2.2950844817739168e-05
0.8,5.307582635401935e-05,2.3049926816427067e-05
0.9,5.3327189498520824e-05,2.3159086635579454e-05
1.0,5.3611361828397375e-05,2.3282494511830365e-05
1.1,5.392776592510102e-05,2.3419899676863286e-05
1.2000000000000002,5.426627949132521e-05,2.3566906298131558e-05
1.3,5.463603228293137e-05,2.3727479151769055e-05
1.4000000000000001,5.503132683240137e-05,2.3899143980345552e-05
1.5,5.545423453102677e-05,2.4082800314532023e-05
1.6,5.5900800040402616e-05,2.4276730453550096e-05
1.7000000000000002,5.638244414527578e-05,2.448589408772967e-05
1.8,5.687886862520472e-05,2.4701476291499624e-05
1.9000000000000001,5.7406888108700044e-05,2.4930779136483487e-05
2.0,5.795463666013579e-05,2.5168649589280092e-05
2.1,5.8531168885175815e-05,2.5419019770981993e-05
2.2,5.912483946334948e-05,2.5676832460483084e-05
2.3000000000000003,5.975010358456363e-05,2.594836507891292e-05
2.4000000000000004,6.03913564067189e-05,2.622684091284202e-05
2.5,6.105722320245059e-05,2.6516005628575827e-05
2.6,6.174245877006533e-05,2.681358138329356e-05
2.7,6.245219991488245e-05,2.7121798906550676e-05
2.8000000000000003,6.317831684704851e-05,2.743712767593622e-05
2.9000000000000004,6.392803321286e-05,2.7762704665178062e-05
3.0,6.470050530027237e-05,2.8098163455376243e-05
3.1,6.54857491226611e-05,2.8439168317324617e-05
3.2,6.629404744979297e-05,2.8790184692108433e-05
3.3000000000000003,6.711968193189154e-05,2.9148729274375368e-05
3.4000000000000004,6.796404006160135e-05,2.9515404584893993e-05
3.5,6.882421213867681e-05,2.9888947023366606e-05
3.6,6.971100818203073e-05,3.0274050976299596e-05
3.7,7.060256078039094e-05,3.066122018757056e-05
3.8000000000000003,7.151788934919417e-05,3.1058714088087184e-05
3.9000000000000004,7.244720382171709e-05,3.146228118574994e-05
4.0,7.33959657266606e-05,3.1874293201083184e-05
4.1000000000000005,7.43563907253826e-05,3.229136966625996e-05
4.2,7.533986343273326e-05,3.271845446972954e-05
4.3,7.633083065729164e-05,3.314879343217286e-05
4.4,7.733978793272063e-05,3.358694434394032e-05
4.5,7.836659122479212e-05,3.403284463287376e-05
4.6000000000000005,7.940544965607854e-05,3.448397952882043e-05
4.7,8.045728113238391e-05,3.494074762479902e-05
4.800000000000001,8.152764864640562e-05,3.540556468303922e-05
4.9,8.261609862929978e-05,3.5878233711665503e-05
5.0,8.371201009209526e-05,3.635414243406731e-05
5.1000000000000005,8.482402794599383e-05,3.6837044958607624e-05
5.2,8.595267845023278e-05,3.7327169793612394e-05
5.300000000000001,8.708619580550188e-05,3.781940753803333e-05
5.4,8.824039008725504e-05,3.832062380735352e-05
5.5,8.941712105660365e-05,3.883162618231418e-05
5.6000000000000005,9.059366733973216e-05,3.9342547755056004e-05
5.7,9.17775862786973e-05,3.98566703367412e-05
5.800000000000001,9.299526945317363e-05,4.0385454567653254e-05
5.9,9.421413769852103e-05,4.091475277591888e-05
6.0,9.54396500581786e-05,4.144693556595337e-05
6.1000000000000005,9.671009352811296e-05,4.199862915064563e-05
6.2,9.79645724007329e-05,4.254338937715465e-05
6.300000000000001,9.92275844764666e-05,4.3091854475749994e-05
6.4,0.00010055190713899248,4.3666943054943623e-05
6.5,0.00010183776085312057,4.422532572200586e-05
6.6000000000000005,0.0001031236425458195,4.478371982089857e-05
6.7,0.0001044733517457919,4.5369830241234695e-05
6.800000000000001,0.0001058077746540382,4.5949301820907544e-05
6.9,0.00010721731883591112,4.65613938855856e-05
7.0,0.00010857153069343393,4.714945717389326e-05
7.1000000000000005,0.00010992290840345609,4.77362889465553e-05
7.2,0.0001112933193431275,4.8331385033211276e-05
7.300000000000001,0.00011269853871938582,4.894159571304386e-05
7.4,0.0001141699851283517,4.95805642879345e-05
7.5,0.00011563472414297342,5.021661927515457e-05
7.6000000000000005,0.00011692124170401447,5.077528179268298e-05
7.7,0.00011847970418308453,5.145203379356489e-05
7.800000000000001,0.00011990346335595931,5.207029085482444e-05
7.9,0.0001214360705407332,5.273581338971999e-05
8.0,0.00012297747655375845,5.340515571729768e-05
8.1,0.00012450146089511892,5.4066931819446914e-05
8.200000000000001,0.0001259426301423031,5.469274530538186e-05
8.3,0.00012776295254612663,5.548320100908165e-05
8.4,0.00012913036050459775,5.607698247078674e-05
8.5,0.00013061014684966592,5.6719562062848274e-05
8.6,0.00013232715925809817,5.746515305536519e-05
8.700000000000001,0.00013403440622121422,5.8206502257233584e-05
8.8,0.00013552344823271375,5.8853097838678884e-05
8.9,0.00013721672798186038,5.9588379619582676e-05
9.0,0.00013894337341622368,6.0338148675800326e-05
9.1,0.00014037784787620825,6.0961046023934604e-05
9.200000000000001,0.00014227340669027206,6.178416042987727e-05
9.3,0.00014398376749696703,6.252685438958045e-05
9.4,0.00014572602215592493,6.328339638523788e-05
9.5,0.00014676275461235257,6.373357773373503e-05
9.600000000000001,0.00014937705346442399,6.486878520917205e-05
9.700000000000001,0.00015101646963002258,6.558066768104148e-05
9.8,0.00015203054121519125,6.602100665302161e-05
9.9,0.0001541533065640566,6.694277081574658e-05
10.0,0.00015592983664456175,6.771418842479135e-05
10.100000000000001,0.0001596234466902442,6.931804983412769e-05
10.200000000000001,0.000160055547093069,6.950567866419057e-05
10.3,0.000162691165353383,7.065012844734256e-05
10.4,0.0001612017483753146,7.000338760994273e-05
10.5,0.0001669225789560975,7.248750521329481e-05
10.600000000000001,0.00016919097310505432,7.347249074147925e-05
10.700000000000001,0.00017278041710009194,7.503109996179201e-05
10.8,0.00017212205050340815,7.474522428134824e-05
10.9,0.00017344013163968808,7.531756075669247e-05
11.0,0.00017568189059888404,7.629097438233423e-05
11.100000000000001,0.00017968122517840463,7.802755476319406e-05
11.200000000000001,0.00018036732780630545,7.832547171619285e-05
11.3,0.000182663128448025,7.932234431892607e-05
11.4,0.00017703640056527975,7.687912686036125e-05
11.5,0.00018654146256856055,8.100637255097053e-05
11.600000000000001,0.0001853016175871638,8.046801480945563e-05
11.700000000000001,0.0001913096510154315,8.307677932931793e-05
11.8,0.0001976364998786497,8.582396062568056e-05
11.9,0.00019121908317966724,8.303745373963015e-05
12.0,0.00017694392141233173,7.683897078175216e-05
12.100000000000001,0.000210609130232997,9.145675262307819e-05
12.200000000000001,0.00020640272248319592,8.963031377208158e-05
12.3,0.00021040690054763815,9.136894387115621e-05
12.4,0.00021039617009760192,9.136428467619814e-05
12.5,0.00021434008186365798,9.307674012235864e-05
12.600000000000001,0.0002109590644383776,9.160869509045256e-05
12.700000000000001,0.00021566991418209768,9.365415481308948e-05
12.8,0.00022001470288064769,9.554066160883638e-05
12.9,0.00021758891800966278,9.448738708346046e-05
13.0,0.00022563441560183287,9.798072812678298e-05
13.100000000000001,0.000226348202495933,9.829065179615814e-05
13.200000000000001,0.00022727342676614735,9.869238047477125e-05
13.3,0.00022207116365362836,9.643357380287203e-05
13.4,0.00023228920871810906,0.00010087020647523126
13.5,0.00023126657254182633,0.00010042618414147956
13.600000000000001,0.0002391198969301758,0.00010383603761348637
13.700000000000001,0.0002461299052850069,0.00010687970709002621
13.8,0.00023959082191551116,0.00010404050879468893
13.9,0.00023676497567891726,0.00010281355160152709
14.0,0.000251596730037416,0.00010925332820632414
14.100000000000001,0.0002555481933135786,0.00011096899185754262
14.200000000000001,0.00025888601212734535,0.00011241821538488749
14.3,0.00026881163294606463,0.00011672772067809744
14.4,0.000258410752595541,0.00011221186616467757
14.5,0.0002708223698324021,0.00011760073705772693
14.600000000000001,0.0002630463789532483,0.00011422456834302719
14.700000000000001,0.0002735419322502644,0.00011878150662452909
14.8,0.0002708723672219297,0.0001176224447686468
14.9,0.0002765774329401975,0.00012009944531227453
15.0,0.00028520238226967834,0.0001238441613598091
15.100000000000001,0.00028110773407021255,0.00012206638162879826
15.200000000000001,0.0002468080443121992,0.00010717414655728917
15.3,0.00029058947899290817,0.00012618307437661948
15.4,0.0002852100773794847,0.00012384750235069734
15.5,0.00029471742265779657,0.00012797529303291635
15.600000000000001,0.00031270332557764764,0.00013578409980766158
15.700000000000001,0.00026745540430768005,0.0001161388759532035
15.8,0.00029652943434454787,0.0001287620071384722
15.9,0.000326034615127508,0.00014157195683395558
16.0,0.00033054039963816874,0.00014352815198913097
16.1,0.0003254148058774683,0.000141302864746823
16.2,0.00032329383081654745,0.00014038203565650467
16.3,0.00030527850805583663,0.00013256053857987877
16.400000000000002,0.00034187781731915163,0.00014845027506451202
16.5,0.00031695536750961557,0.0001376301569625354
16.6,0.0003533623885840721,0.0001534362277745322
16.7,0.00032339536331210656,0.00014042611640577174
16.8,0.0003274249013858007,0.00014217555327130074
16.900000000000002,0.0003542928820356954,0.00015384019301195451
17.0,0.00030567327741835387,0.00013273193237897744
17.1,0.00025298719844597854,0.00010985704864963882
17.2,0.0003639462613705196,0.00015803109735303069
17.3,0.00032178047856954887,0.00013972500704256436
17.400000000000002,0.00031415594264837124,0.0001364147657163696
17.5,0.0003091630271697262,0.000134247045665906
17.6,0.0003886727709564838,0.0001687656445112883
17.7,0.0003739280306941226,0.0001623645259271412
17.8,0.0004418390350218378,0.00019184587542154973
17.900000000000002,0.00044762789772721426,0.00019435882895647703
18.0,0.00034455435229263745,0.00014961228061510044
18.1,0.00038921537594165367,0.00016900120324302615
18.2,0.0004306139932995999,0.00018697302740794706
18.3,0.0005237177888997287,0.00022738820736510339
18.400000000000002,0.0005286490455799462,0.00022952869863921015
18.5,0.0005032389297336199,0.00021849891629191812
18.6,0.0005032380557329708,0.0002184985369091788
18.7,0.0005825835935241875,0.0002529391679622003
18.8,0.0007163955381061811,0.00031101523739236845
18.900000000000002,0.00029669115648812456,0.00012883222134681547
19.0,0.0004762118581332528,0.0002067669536731112
19.1,0.0008990056901196067,0.00039025781469301653
19.200000000000003,0.0005182879624093781,0.00022503129164247964
19.3,0.0003982354797375755,0.0001729170427822031
19.400000000000002,0.0007810748413471685,0.00033908408575857697
19.5,0.00039477945950345476,0.000171416707159417
19.6,0.0007031753184592351,0.00030527784127020623
19.700000000000003,0.0011880177195993495,0.0005156433039458762
19.8,0.0017403419221867105,0.0007551639621169382
19.900000000000002,0.0025352208059366776,0.0010996390807208837
20.0,0.0004205516372069642,0.00018260486069854762
20.1,0.00043848893152497907,0.00019039158408573525
20.200000000000003,0.0013613144583673664,0.0005908093099536116
20.3,0.00041458460119676047,0.00018001449154157314
20.400000000000002,0.0021452947152428127,0.0009306917094435884
20.5,0.0011870293996777861,0.0005152145911641605
20.6,0.0009790803352744653,0.000425001165741616
20.700000000000003,0.0018598644808370387,0.0008069786780273121
20.8,0.0015234780109456274,0.0006611346092112632
20.900000000000002,0.0024368212053011277,0.001057010652277681
21.0,0.0016363726902181074,0.0007100868046928743
21.1,0.0008165662692285771,0.0003544855140663884
21.200000000000003,0.0013996275541611246,0.0006074255378227735
21.3,0.0007557218035562605,0.0003280818554412161
21.400000000000002,0.0005970220697589804,0.0002592060223097494
21.5,0.0012886476778901316,0.0005592922876187878
21.6,0.0007716696645797788,0.00033500263810984837
21.700000000000003,0.004531153624443368,0.0019634101110311874
21.8,0.0033006259046748374,0.0014310831791817967
21.900000000000002,0.0011784746767325703,0.0005115037112455425
22.0,0.0020485741972515064,0.0008887744199692122
22.1,0.0033736106446968124,0.001462674624660459
22.200000000000003,0.0016272592008403986,0.0007061353146496365
22.3,0.00227276783525771,0.0009859305577880973
22.400000000000002,0.0010199082207436028,0.0004427147864485463
22.5,0.0009502944268673464,0.0004125116530382537
22.6,0.002498643915352227,0.0010837938204215744
22.700000000000003,0.0023505530310257376,0.0010196343274301576
22.8,0.0009351632174009808,0.0004059464414765639
22.900000000000002,0.00038435401325247664,0.00016689075654101603
23.0,0.0017163831338952945,0.0007447767454445045
23.1,0.0015771748486528732,0.000684418751507532
23.200000000000003,0.001549340933182916,0.0006723495029564019
23.3,0.0009921333326848793,0.00043066442873856547
23.400000000000002,0.0010580956342429722,0.0004592821558827155
23.5,0.0011143361408563264,0.00048368059559790965
23.6,0.0008395526793062159,0.00036446012555074617
23.700000000000003,0.0002761537123872594,0.00011991547665680189
23.8,0.0010868441926034206,0.0004717541203355959
23.900000000000002,0.00013894185117325773,6.033748766590848e-05
24.0,0.0021373700668999344,0.0009272574323260691
24.1,0.0006776545039115168,0.0002942019393057548
24.200000000000003,0.001996428558621669,0.0008661735671078322
24.3,0.0009625488396985619,0.00041782859167471717
24.400000000000002,0.0018399865985778822,0.0007983617640991282
24.5,0.001234049758999793,0.000535610583602423
24.6,0.0016996779208402603,0.0007375341341966065
24.700000000000003,0.0009418695282208158,0.00040885622438063726
24.8,0.007960729764190246,0.003443612289129422
24.900000000000002,0.0030129624488877673,0.0013065456661281371
25.0,0.0006027577636046336,0.0002616955090787999
25.1,0.001416432385866699,0.0006147135218021007
25.200000000000003,0.0014545141992927959,0.0006312285363735379
25.3,0.002366633590753893,0.0010266015928406043
25.400000000000002,0.0016175282249057113,0.0007019160508048095
25.5,0.0019961254070548612,0.000866042172355537
25.6,0.0008461337038308847,0.00036731582128338326
25.700000000000003,0.0015893160936547262,0.0006896832921551833
25.8,0.002807874752885734,0.001217735685357801
25.900000000000002,0.0021298143550111557,0.0009239830146181026
26.0,0.003698798004241292,0.0016034040537154706
26.1,0.0013613449790402096,0.0005908225468935867
26.200000000000003,0.000980317272512562,0.0004255378349843117
26.3,0.0014313626334185104,0.0006211884263270048
26.400000000000002,0.0029602880190103126,0.0012837375711217908
26.5,0.0013839846291360642,0.000600641344085581
26.6,0.0015498084764383883,0.0006725522402557982
26.700000000000003,0.00066329605538395,0.0002879703224864024
26.8,0.0014777823357310907,0.0006413189655680233
26.900000000000002,0.0007202317716810039,0.0003126800965741167
27.0,0.002064985650595525,0.0008958871941854098
27.1,0.0016083141498320157,0.00069792087275171
27.200000000000003,0.002638953493398572,0.001144573365607803
27.3,0.002924056667206212,0.0012680486544563768
27.400000000000002,0.0022594649986593263,0.0009801662718028205
27.5,0.0008088080007045219,0.0003511188768799778
27.6,0.0025615035354102696,0.0011110245109017482
27.700000000000003,0.002546245981955522,0.0011044151191875859
27.8,0.003259924430574746,0.0014134645475322237
27.900000000000002,0.002478586797566436,0.0010751047486016164
28.0,0.003284846796454959,0.0014242528898942572
28.1,0.002409899931194062,0.001045347156342604
28.200000000000003,0.003578152393801339,0.0015511982801847187
28.3,0.002942439291560111,0.0012760087777607709
28.400000000000002,0.003318318212273405,0.001438741505726452
28.5,0.0021729265933148815,0.0009426662273065819
28.6,0.002611344925840546,0.001132614510841437
28.700000000000003,0.0014349231475668093,0.0006227325250601786
28.8,0.004820236482463451,0.002088372913988634
28.900000000000002,0.010239812718361139,0.0044244797011657
29.0,0.005901573833485302,0.0025554876461098917
29.1,0.0044724902758410566,0.0019380471220962726
29.200000000000003,0.004118343904974165,0.0017849011317531613
29.3,0.005844283716073887,0.0025307521341437892
29.400000000000002,0.001435607304939895,0.0006230292249890218
29.5,0.003079934796803131,0.0013355430482439004
29.6,0.0038769331197175696,0.0016804752164000412
29.700000000000003,0.002087744685404389,0.0009057508368926684
29.8,0.0050729371351896915,0.002197579215170384
29.900000000000002,0.00396151660933038,0.0017170659519003568
30.0,0.0023404013274080345,0.001015235815177133
30.1,0.0030047128135121215,0.0013029736426455017
30.200000000000003,0.006342818392508934,0.0027459516682391584
30.3,0.0058288610305396735,0.0025240930133604085
30.400000000000002,0.0050386365899909935,0.0021827576125268426
30.5,0.0038040466522288405,0.0016489421282565048
30.6,0.003296985470179804,0.0014295073569004046
30.700000000000003,0.001968380494756073,0.0008540165478721565
30.8,0.00571819864331905,0.0024763088325812023
30.900000000000002,0.007947203752510639,0.0034377843719542124
31.0,0.005325668328837948,0.002306771256078216
31.1,0.003145723150415687,0.0013640259049400164
31.200000000000003,0.008840511118618525,0.0038225134956542286
31.3,0.006461457216111741,0.0027971480881933577
31.400000000000002,0.005264147264958646,0.0022801937230929304
31.5,0.011090464071859098,0.00479001443331621
31.6,0.007433441749508526,0.00321636316475297
31.700000000000003,0.007166881379529734,0.003101436449888133
31.8,0.008403612669518137,0.0036343928945572774
31.900000000000002,0.0018454368904985085,0.0008007244420705973
32.0,0.0008819332306805895,0.00038284993625545564
32.1,0.013515855960735013,0.005830547407307714
32.2,0.00706851044830497,0.0030590164300454644
32.300000000000004,0.004805277253226835,0.002081907320606459
32.4,0.003306483658948696,0.0014336187930001337
32.5,0.009902212269827541,0.00427932355725351
32.6,0.006722350644959669,0.0029097106636574908
32.7,0.007105171606101372,0.00307482612776398
32.800000000000004,0.014968668247210085,0.006452635926701791
32.9,0.008058733140892387,0.0034858364109956255
33.0,0.00841015599581027,0.0036372109341265483
33.1,0.012002323620590127,0.005181509672201089
33.2,0.004969847437507609,0.002153031619241277
33.300000000000004,0.004565435202483965,0.00197823100143355
33.4,0.008144583122991345,0.0035228209484367483
33.5,0.006096137712231241,0.0026394817964964044
33.6,0.00518745146779633,0.0022470583205496312
33.7,0.009192059342100824,0.003973824685929853
33.800000000000004,0.007090486402598564,0.0030684933737222
33.9,0.006382775800862077,0.0027631952328972293
34.0,0.010168985985117215,0.004394030754941165
34.1,0.012516527016906828,0.005402120808845143
34.2,0.004331280062775989,0.0018769890761794797
34.300000000000004,0.0031881465502249747,0.0013823919891912421
34.4,0.013662701905383852,0.005893466762206085
34.5,0.0032581423201257127,0.0014126931009681848
34.6,0.011992802865546675,0.005177423880368047
34.7,0.023697562117320742,0.010171669038213833
34.800000000000004,0.007378393371513754,0.0031926317111352132
34.9,0.005584771565856615,0.0024186878332372844
35.0,0.02029392360008813,0.008725300202507334
35.1,0.003454348965154077,0.0014976195305291965
35.2,0.011763616827658764,0.005079058058235524
35.300000000000004,0.022711610854838363,0.009753186526007837
35.4,0.015992145773221157,0.006890350604854784
35.5,0.005673399736570788,0.002456963103967292
35.6,0.008713316650812403,0.0037677542572045137
35.7,0.014922664546115133,0.006432950977844354
35.800000000000004,0.014606724218136464,0.006297736239964892
35.9,0.007482661291216716,0.003237580698661834
36.0,0.024433022662953767,0.010483569531989015
36.1,0.009561641481410007,0.004132841098322948
36.2,0.007316764328525943,0.003166061782478138
36.300000000000004,0.009428781238043523,0.004075683352558217
36.4,0.01884760438813801,0.008109228635594169
36.5,0.005009978552466792,0.002170373805024871
36.6,0.02704504696145937,0.01158949249478937
36.7,0.003995497554139959,0.001731765207629399
36.800000000000004,0.0063414175007307045,0.0027453471028948896
36.9,0.015554806006434375,0.006703365755501451
37.0,0.007015011592451635,0.0030359446381992357
37.1,0.021252045814222312,0.009132939537963009
