Frequency (Hz),Power,Log Power
0.0,0.00046535804299163534,0.00020205541976875126
0.1,0.00046535874962037725,0.00020205572651097546
0.2,0.0004653608237870985,0.00020205662689109073
0.30000000000000004,0.00046536426704533876,0.00020205812158361587
0.4,0.00046536910580067414,0.0002020602220508963
0.5,0.00046537534264071113,0.0002020629294161313
0.6000000000000001,0.00046538292721528336,0.0002020662218227773
0.7000000000000001,0.0004653919196500598,0.0002020701253709262
0.8,0.00046540231466711557,0.00020207463776942145
0.9,0.0004654141351654849,0.00020207976895853403
1.0,0.0004654272868687366,0.00020208547801358457
1.1,0.00046544194416547126,0.00020209184063528081
1.2000000000000002,0.0004654579954969548,0.00020209880839687627
1.3,0.00046547545272862897,0.00020210638644892456
1.4000000000000001,0.0004654943754532469,0.0002021146006601654
1.5,0.0004655147585587503,0.00020212344881161736
1.6,0.00046553659763719696,0.00020213292898955685
1.7000000000000002,0.00046555990794658434,0.0002021430478175243
1.8,0.0004655846849374427,0.0002021538033204876
1.9000000000000001,0.00046561101769704435,0.00020216523417046492
2.0,0.00046563884653707036,0.0002021773144572846
2.1,0.0004656681677031961,0.0002021900425509737
2.2,0.0004656990855887354,0.00020220346376803437
2.3000000000000003,0.0004657315121556927,0.0002022175398916778
2.4000000000000004,0.00046576559555110234,0.00020223233523133358
2.5,0.00046580112781655444,0.00020224775951373147
2.6,0.0004658384458476044,0.00020226395898268476
2.7,0.0004658773164401896,0.00020228083240590838
2.8000000000000003,0.0004659178283164267,0.00020229841829701221
2.9000000000000004,0.00046596018015588843,0.00020231680290114086
3.0,0.00046600367570365285,0.00020233568397921324
3.1,0.0004660494292430579,0.00020235554523303126
3.2,0.00046609721129765955,0.00020237628704853952
3.3000000000000003,0.000466146103823553,0.0002023975109098019
3.4000000000000004,0.00046619687153693067,0.0002024195487741518
3.5,0.0004662495391590313,0.00020244241137270537
3.6,0.00046630328663884086,0.00020246574272773823
3.7,0.00046636069156767235,0.000202490661751017
3.8000000000000003,0.0004664179609639208,0.0002025155219393013
3.9000000000000004,0.00046647790728206184,0.00020254154415646686
4.0,0.00046654086939746585,0.0002025688755054758
4.1000000000000005,0.0004666049240913776,0.0002025966811321689
4.2,0.00046667015642001564,0.0002026249979588489
4.3,0.000466738472402984,0.00020265465337302214
4.4,0.0004668089843005209,0.00020268526201367606
4.5,0.0004668803621275212,0.00020271624654510129
4.6000000000000005,0.00046695408119606246,0.00020274824738807247
4.7,0.00046703350757409294,0.00020278272572455113
4.800000000000001,0.0004671072927785196,0.00020281475527161082
4.9,0.0004671833887862429,0.000202847787916811
5.0,0.0004672753809757068,0.00020288772095926056
5.1000000000000005,0.0004673584560604665,0.0002029237831576059
5.2,0.0004674458680263378,0.00020296172795656223
5.300000000000001,0.0004675332248847133,0.00020299964883051553
5.4,0.0004676209454559904,0.00020303772758580596
5.5,0.0004677236744200224,0.00020308232135273372
5.6000000000000005,0.0004678098833659169,0.00020311974391723188
5.7,0.00046791434024009987,0.00020316508774666068
5.800000000000001,0.00046800738328003997,0.00020320547692493116
5.9,0.00046811282009789006,0.00020325124613031795
6.0,0.0004682362610576079,0.00020330483077098165
6.1000000000000005,0.00046832131418487165,0.00020334175158565873
6.2,0.0004684371585700695,0.00020339203860951085
6.300000000000001,0.0004685622798683622,0.0002034463526527785
6.4,0.00046866834349487045,0.00020349239392487394
6.5,0.00046879233352049263,0.00020354621688034228
6.6000000000000005,0.0004689033336324777,0.0002035944010254385
6.7,0.0004690365055191858,0.00020365220973040255
6.800000000000001,0.0004691668293252954,0.0002037087821020981
6.9,0.00046927237222295045,0.00020375459730280688
7.0,0.0004694307809796306,0.00020382336107727857
7.1000000000000005,0.00046954282097849285,0.0002038719965967902
7.2,0.00046968463239056016,0.00020393355560161233
7.300000000000001,0.0004698171849188402,0.0002039910954038353
7.4,0.00047002103550978553,0.0002040795850076191
7.5,0.00047020167049751743,0.0002041579969237518
7.6000000000000005,0.0004702543139576042,0.00020418084894229479
7.7,0.00047041955861960047,0.00020425258004935616
7.800000000000001,0.0004705659572880188,0.00020431613028332808
7.9,0.00047071170794269417,0.00020437939921156466
8.0,0.00047084976618756437,0.00020443932893172046
8.1,0.0004710599367005122,0.00020453056185918236
8.200000000000001,0.0004711881541037417,0.00020458621974807988
8.3,0.0004712931927071517,0.00020463181594712707
8.4,0.0004714528217448105,0.00020470110929436686
8.5,0.0004717565300563263,0.00020483294596332165
8.6,0.0004718690463168298,0.00020488178811004518
8.700000000000001,0.0004719085154034699,0.00020489892123166193
8.8,0.0004693268029534418,0.00020377822518009834
8.9,0.00047350250442184446,0.00020559085478573526
9.0,0.00047150130587023396,0.0002047221557595542
9.1,0.00047261000351769914,0.0002052034298417964
9.200000000000001,0.00047442039782191715,0.0002059893019757989
9.3,0.0004748331016000828,0.00020616845191990705
9.4,0.0004723895529409737,0.00020510773458879672
9.5,0.0004737324699176205,0.00020569068025248403
9.600000000000001,0.000474085054854475,0.00020584373341180266
9.700000000000001,0.00047489365933585734,0.00020619473932753378
9.8,0.0004748598191581885,0.0002061800497008232
9.9,0.00047499649504876185,0.0002062393791087159
10.0,0.00047490388212544587,0.00020619917692119716
10.100000000000001,0.00047355734036751607,0.000205614658462646
10.200000000000001,0.00047351619035185407,0.00020559679569660965
10.3,0.0004751346507573739,0.00020629935088010255
10.4,0.00047907733082545054,0.00020801081852607188
10.5,0.00047847551698591,0.0002077495791717186
10.600000000000001,0.0004793239401240069,0.00020811786828530015
10.700000000000001,0.00047349121108017584,0.00020558595247102882
10.8,0.00047157582609379565,0.0002047545042278807
10.9,0.0004627592339140646,0.00020092729484299282
11.0,0.00047631888291024496,0.0002068134118168019
11.100000000000001,0.00048265533082433637,0.0002095639773200966
11.200000000000001,0.00047628681919196803,0.00020679949335025976
11.3,0.00047510760393431375,0.000206287610172281
11.4,0.00048622464088978465,0.00021111335840360074
11.5,0.0004792184848052587,0.00020807209156176732
11.600000000000001,0.0004824023913291964,0.00020945418007344805
11.700000000000001,0.00047784311336708014,0.00020747506103314088
11.8,0.0004785942128931165,0.00020780110349301385
11.9,0.0004801398997950065,0.00020847206514830436
12.0,0.00047934530211667185,0.00020812714123597084
12.100000000000001,0.0004822934178050708,0.00020940687629009334
12.200000000000001,0.00048195045003987573,0.00020925799905922824
12.3,0.000481999600460999,0.00020927933453271526
12.4,0.00048184870934023645,0.00020921383491746972
12.5,0.0004818603269154887,0.00020921887793623784
12.600000000000001,0.0004827500684640579,0.00020960510150350688
12.700000000000001,0.00048508979750497457,0.00021062074142674
12.8,0.00048206213307103396,0.0002093064790156895
12.9,0.0004823454446882208,0.00020942946038564957
13.0,0.00048307889693960246,0.000209747840964982
13.100000000000001,0.0004838371981886153,0.00021007700787461004
13.200000000000001,0.0004846032640016737,0.0002104095450087658
13.3,0.00048502426507572756,0.0002105922948525371
13.4,0.0004842836910515059,0.00021027082344272853
13.5,0.00048605440835558056,0.00021103946327665957
13.600000000000001,0.00048713227106151263,0.00021150734543377384
13.700000000000001,0.0004829587586463474,0.0002096956907566631
13.8,0.000485458098386053,0.0002107806148845727
13.9,0.0004889416200378185,0.0002122927524023573
14.0,0.0004852721747828685,0.0002106999084617401
14.100000000000001,0.000490824645773744,0.0002131101396645534
14.200000000000001,0.0004858616649247435,0.00021095579652678198
14.3,0.000488340005551164,0.00021203160215922933
14.4,0.0004981397362818714,0.00021628547296104813
14.5,0.0004930356279699894,0.00021406988490434945
14.600000000000001,0.0004890087982213834,0.00021232191325789944
14.700000000000001,0.0004870644920680032,0.0002114779237221634
14.8,0.000496121204366829,0.00021540927127539593
14.9,0.00048647707671736664,0.00021122293659710256
15.0,0.00047780582879082333,0.00020745887628085776
15.100000000000001,0.000489509556803082,0.00021253928359626963
15.200000000000001,0.0004918257483625356,0.0002135446994845108
15.3,0.0004929445806874883,0.00021403036305580328
15.4,0.0004922915749416203,0.00021374690589991445
15.5,0.0004903399564186634,0.00021289974496811235
15.600000000000001,0.0004930980677200357,0.00021409698877921982
15.700000000000001,0.0004823028435775013,0.00020941096787766272
15.8,0.0004899384627871691,0.0002127254639214278
15.9,0.0004818096107641709,0.00020919686279925701
16.0,0.0005026313366945483,0.0002182351746326909
16.1,0.0005015834354627337,0.00021778030530339578
16.2,0.0004896217486794722,0.00021258798406695458
16.3,0.0004993744284093606,0.00021682142562874697
16.400000000000002,0.0005001879056022214,0.0002171745378058827
16.5,0.00048730797085838547,0.00021158361372651045
16.6,0.0004933139116310818,0.0002141906823884558
16.7,0.0004995600734189334,0.0002169020099827578
16.8,0.0004904893832929013,0.0002129646084250379
16.900000000000002,0.00047658141556977126,0.00020692737400488916
17.0,0.00048222028281088506,0.00020937512947585734
17.1,0.0004879850508658559,0.0002118775225140304
17.2,0.00048612427332884653,0.00021106979050732551
17.3,0.0004910184550002667,0.0002131942686414128
17.400000000000002,0.00048494628998294997,0.0002105584471156505
17.5,0.0004824512269088286,0.00020947537886931286
17.6,0.0003979491053782971,0.0001727927214695407
17.7,0.00048309103854541664,0.00020975311145125528
17.8,0.0004891088013540375,0.0002123653228367518
17.900000000000002,0.00047866260519117374,0.0002078307916810502
18.0,0.0004508361172156708,0.000195751515337776
18.1,0.0007281583836975807,0.0003161200892073738
18.2,0.0004565960212990786,0.00019825187544386994
18.3,0.00039356077444094724,0.00017088764750113706
18.400000000000002,0.00035378715663169177,0.0001536206369912574
18.5,0.0004859552371894921,0.00021099641470824078
18.6,0.0004266533275736991,0.00018525366911329526
18.7,0.00042199508504237217,0.0001832314781511718
18.8,0.0003555176566877531,0.00015437191717324817
18.900000000000002,0.0003462089531279994,0.00015033061652764635
19.0,0.00043378610247406073,0.00018835006176408882
19.1,0.0006835765559017316,0.00029677210451226424
19.200000000000003,0.0005740476279647122,0.0002492341878697968
19.3,0.0002686516705206082,0.00011665826854336577
19.400000000000002,0.00039917696823692873,0.00017332576308293324
19.5,0.0008258233311447909,0.00035850250624223554
19.6,0.0006588450240753568,0.00028603854119407676
19.700000000000003,0.0005316458459843946,0.00023082950290009716
19.8,0.0002976453325569505,0.00012924649164029387
19.900000000000002,0.0010942307246746856,0.0004749585558974798
20.0,0.0011626896597514797,0.0005046563808366477
20.1,0.0008960771430655586,0.00038898710338341455
20.200000000000003,0.0006850855591465704,0.00029742700812377575
20.3,0.0009531989919629476,0.00041377189020500493
20.400000000000002,0.0010705810532303669,0.0004646987393757389
20.5,0.0008448623809909086,0.00036676415921849695
20.6,0.0007733962645711205,0.0003357519121196102
20.700000000000003,0.0016152204842779497,0.0007009154291635959
20.8,0.0002556679732771542,0.00011102099834155342
20.900000000000002,0.0006625415112736107,0.0002876428452337666
21.0,0.0009350659047514304,0.0004059042186129873
21.1,0.0007127796967228339,0.0003094460187763022
21.200000000000003,0.0005042826285982844,0.00021895196072359573
21.3,0.00046218384282145105,0.000200677521179676
21.400000000000002,0.0005711393990072036,0.00024797188286903085
21.5,0.00041513135987236954,0.0001802518473483978
21.6,0.0005590862057014734,0.00024274020401570355
21.700000000000003,0.0009259225100262605,0.000401936984226588
21.8,0.0013910012883085517,0.0006036844182016338
21.900000000000002,0.0005905655207060444,0.000256403642719515
22.0,0.0016839360576873191,0.000730709076574426
22.1,0.0009728849680066325,0.000422313175355792
22.200000000000003,0.0012076468011392482,0.0005241579066779472
22.3,0.0022000913388110313,0.0009544379873197658
22.400000000000002,0.0016265207982377723,0.0007058151513443761
22.5,0.001551948253254194,0.0006734800945302568
22.6,0.0020091334575555405,0.0008716802060162622
22.700000000000003,0.0005454366601891835,0.00023681555367501648
22.8,0.004235257218749661,0.0018354647447172026
22.900000000000002,9.282305326873048e-05,4.0310668977233444e-05
23.0,0.0012962613557154514,0.0005625945977996173
23.1,0.0014413132307565047,0.0006255037176259431
23.200000000000003,0.0014344225524771583,0.0006225154308342879
23.3,0.0015844373388760075,0.0006875678328493843
23.400000000000002,0.000982825916630333,0.0004266262569176667
23.5,0.00046863678823785566,0.00020347869607038633
23.6,0.0009589577555416918,0.00041627050058256243
23.700000000000003,0.0008352406138045915,0.00036258898618364387
23.8,0.000847518554300947,0.00036791674532262066
23.900000000000002,0.0006502763807927952,0.00028231966093186046
24.0,0.0021899024060663356,0.0009500226816344236
24.1,0.0010043143439531523,0.0004359492992327535
24.200000000000003,0.0007041473436429383,0.00030569968960538694
24.3,0.0003895349495876237,0.00016913993829405843
24.400000000000002,0.0005895606594364204,0.0002559674943700276
24.5,0.0005671398300220964,0.00024623588015671685
24.6,0.0019520427986977338,0.0008469350578460203
24.700000000000003,0.0016324711476305544,0.0007083951511517634
24.8,0.0056467683582352105,0.0024454623386085824
24.900000000000002,0.004076011812142336,0.001766591555018578
25.0,0.001495574736317479,0.0006490346362407381
25.1,0.0014455144860269261,0.0006273256697760358
25.200000000000003,0.0014229539786890183,0.0006175417982931676
25.3,0.00035914845081555866,0.00015594818777429093
25.400000000000002,0.001202871597139259,0.0005220865584422983
25.5,0.0006020934621151317,0.00026140718030418755
25.6,0.0007417072882026961,0.0003219999823433785
25.700000000000003,0.0008375952040935447,0.0003636107171591994
25.8,0.0007009997171879036,0.0003043336525463504
25.900000000000002,0.0009796168945871782,0.00042523396250117665
26.0,0.0066130361303700785,0.0028625504231563847
26.1,0.0010033701904206486,0.0004355396697669052
26.200000000000003,0.000794527184818663,0.0003449217653670461
26.3,0.0011082509870324346,0.0004810407804801811
26.400000000000002,0.0003002284367362436,0.00013036798427599686
26.5,0.0019418860687437593,0.0008425326174676304
26.6,0.0007295466980699748,0.00031672258734613426
26.700000000000003,0.001394847521728596,0.000605352492650532
26.8,0.0033450834998203483,0.0014503269232697975
26.900000000000002,0.002158793130422329,0.0009365414078626891
27.0,0.0009108098396560305,0.00039537965690545306
27.1,0.001070382155825435,0.0004646124516996566
27.200000000000003,0.0011456906740813047,0.0004972823262232741
27.3,0.0009572050707784367,0.0004155100478369762
27.400000000000002,0.0014850193822528984,0.0006444573257682508
27.5,0.001822996935096708,0.000790996735988029
27.6,0.0013019120346843794,0.0005650454725960104
27.700000000000003,0.0016521251282212112,0.0007169167714288386
27.8,0.001313924095635585,0.0005702554301858358
27.900000000000002,0.0012168532134145542,0.000528151359663809
28.0,0.0016835208626909677,0.0007305290627729435
28.1,0.0009295346156259147,0.0004035042477614607
28.200000000000003,0.002467891335708559,0.0010704712283385904
28.3,0.0007268104803825778,0.0003155351277858735
28.400000000000002,0.0011611677839606053,0.0005039962056550998
28.5,0.0005145695581530055,0.00022341724273376633
28.6,0.0014211527124456502,0.0006167606291674439
28.700000000000003,0.002258789698159374,0.0009798736535838808
28.8,0.003023837476553905,0.0013112544177384606
28.900000000000002,0.007281800664051023,0.003150987288915021
29.0,0.01068563487478773,0.004616093009630584
29.1,0.004225699363297428,0.001831331307252911
29.200000000000003,0.0036236220522753524,0.0015708746495702477
29.3,0.0052616984700506525,0.0022791357927827113
29.400000000000002,0.008912377314527925,0.003853449981991021
29.5,0.0011254984417369753,0.0004885228982972769
29.6,0.0018074278584081127,0.0007842474233297394
29.700000000000003,0.0017180948154287177,0.0007455188449270817
29.8,0.0010222807319481097,0.00044374410394255366
29.900000000000002,0.001901971983844717,0.0008252314023510043
30.0,0.0011224436349923515,0.0004871977020669664
30.1,0.00383126217304542,0.0016607167274195174
30.200000000000003,0.0009672573854530139,0.000419871515889811
30.3,0.0005295507093522344,0.0002299200791606716
30.400000000000002,0.0007962154801263647,0.0003456543999864639
30.5,0.0015843796696828635,0.0006875428270563934
30.6,0.0006784705632413571,0.0002945561092202817
30.700000000000003,0.0015763170586458309,0.0006840468045067776
30.8,0.001535645488110755,0.0006664108071323128
30.900000000000002,0.0015040098468293139,0.0006526924721961309
31.0,0.0004734639104697259,0.00020557410157769464
31.1,0.001530421857030425,0.0006641456854863676
31.200000000000003,0.0016114810918163426,0.0006992940475092832
31.3,0.0008982632161460297,0.0003899356518499399
31.400000000000002,0.0013861389138273925,0.0006015756439764008
31.5,0.000843398265006453,0.00036612883801947246
31.6,0.0012830554522446,0.000556866733781508
31.700000000000003,0.0023390390814611965,0.0010146455802640321
31.8,0.0028392290251579386,0.0012313143327752959
31.900000000000002,0.0003965898282901298,0.0001722026293563284
32.0,0.0025632416864718676,0.0011117774510033891
32.1,0.0008692438274533253,0.0003773438195477512
32.2,0.0009065497961224017,0.00039353122314064547
32.300000000000004,0.0009100654824667589,0.00039505668073527893
32.4,0.0029354576779293236,0.0012729855864895385
32.5,0.003037335001594045,0.0013170986070630678
32.6,0.0008061533853246443,0.00034996692225010425
32.7,0.0023822487068915913,0.0010333670873450705
32.800000000000004,0.00045606022807185285,0.0001980192895373816
32.9,0.0010696546797979002,0.000464296850574249
33.0,0.0028734666675892468,0.0012461412012640916
33.1,0.0016855479837474623,0.0007314079497466005
33.2,0.002275780530711646,0.0009872359858979758
33.300000000000004,0.0018575027230680807,0.0008059548825725057
33.4,0.0036358316223368734,0.001576158021278322
33.5,0.0009160727403673373,0.0003976632197426644
33.6,0.0017308303714079073,0.0007510403050614029
33.7,0.0020161687252175813,0.0008747294468826328
33.800000000000004,0.0025153177615357164,0.001091017071259911
33.9,0.0021147011795926095,0.0009174333460146719
34.0,0.003472111872101083,0.0015053072386942237
34.1,0.0026312684851224487,0.0011412445806379106
34.2,0.0023500050359570083,0.0010193968942300022
34.300000000000004,0.0012540537960382169,0.0005442874320555317
34.4,0.002758527577226029,0.0011963639610748633
34.5,0.0013905785197560379,0.0006035010671549938
34.6,0.0017721222889815337,0.0007689418029635216
34.7,0.0030242690690642296,0.001311441290869852
34.800000000000004,0.0024498074982706015,0.001062636781253087
34.9,0.0016878088675269453,0.0007323881857533488
35.0,0.00344817410962425,0.001494947048281149
35.1,0.001905521509564309,0.0008267700126600189
35.2,0.005864026609842776,0.002539276461231286
35.300000000000004,0.0010326426988319058,0.0004482396300009087
35.4,0.0018050998550169833,0.0007832382072136949
35.5,0.003715699559684921,0.001610717194348698
35.6,0.007622749182868639,0.0032979640395110993
35.7,0.004574535840925584,0.0019821653784445423
35.800000000000004,0.005078620703118713,0.0022000350918723647
35.9,0.017714333625695917,0.007625891222432565
36.0,0.008053665046917692,0.0034836529560960195
36.1,0.0400305299205072,0.017046088127049438
36.2,0.005129570412547431,0.0022220499038325585
36.300000000000004,0.002284472676016882,0.0009910023488556151
36.4,0.008133538570324754,0.0035180630847009304
36.5,0.0014026147245255495,0.0006087210342810643
36.6,0.0022294565880914283,0.0009671629700823758
36.7,0.0044818052378529935,0.001942074527408571
36.800000000000004,0.005646363562812839,0.0024452875252852454
