Frequency (Hz),Power,Log Power
0.0,0.0012216828749216369,0.0005302463007111625
0.1,0.001221696411542012,0.0005302521724172464
0.2,0.00122171496259539,0.0005302602192066424
0.30000000000000004,0.0012217485752155,0.0005302747991692362
0.4,0.0012218013585772922,0.0005302976947187415
0.5,0.001221864230750102,0.0005303249664349771
0.6000000000000001,0.0012219338225459815,0.0005303551528831225
0.7000000000000001,0.0012220271504050082,0.0005303956351888014
0.8,0.0012221281629791636,0.0005304394508461926
0.9,0.0012222473834579476,0.0005304911644385548
1.0,0.0012223779909079347,0.0005305478172858766
1.1,0.0012225253737018086,0.000530611746669346
1.2000000000000002,0.0012226881875269308,0.0005306823694713395
1.3,0.0012228575549185826,0.0005307558349633442
1.4000000000000001,0.0012230432224476775,0.0005308363708552168
1.5,0.0012232425526284851,0.0005309228330971412
1.6,0.001223463279177527,0.0005310185762916819
1.7000000000000002,0.0012236945029259509,0.0005311188727691279
1.8,0.00122393097833402,0.0005312214472019965
1.9000000000000001,0.0012241908579774042,0.000531334173513195
2.0,0.001224456396095935,0.0005314493542343616
2.1,0.0012247464876497377,0.0005315751853025549
2.2,0.001225049732106238,0.0005317067215781169
2.3000000000000003,0.0012253584106542619,0.0005318406149215498
2.4000000000000004,0.0012256895153562955,0.0005319842358557078
2.5,0.001226029993408423,0.0005321319225517126
2.6,0.0012263826055785348,0.000532284872523233
2.7,0.0012267573345142815,0.0005324474158615182
2.8000000000000003,0.0012271381384854237,0.0005326125942595587
2.9000000000000004,0.0012275380325934577,0.0005327860531713016
3.0,0.0012279569820296274,0.0005329677774880862
3.1,0.0012283834103012652,0.0005331527457608422
3.2,0.0012288297101345556,0.0005333463334725914
3.3000000000000003,0.0012292817637270625,0.0005335424168559571
3.4000000000000004,0.0012297547995734663,0.0005337476014355434
3.5,0.0012302476649593767,0.0005339613871961846
3.6,0.001230749322991515,0.0005341789867554528
3.7,0.0012312652835241734,0.0005344027900641954
3.8000000000000003,0.0012317920043283127,0.0005346312606348606
3.9000000000000004,0.001232343867074246,0.0005348706366526765
4.0,0.001232908871237579,0.0005351157127557541
4.1000000000000005,0.0012334843735956702,0.0005353653424117998
4.2,0.0012340796295628833,0.0005356235402338421
4.3,0.0012346867997870368,0.000535886905817688
4.4,0.001235315168122695,0.0005361594661062115
4.5,0.0012359494499980571,0.0005364345912711551
4.6000000000000005,0.0012366031459362318,0.0005367181372687914
4.7,0.0012372747494381997,0.0005370094506268649
4.800000000000001,0.00123796292682198,0.0005373079528352397
4.9,0.0012386597381989714,0.0005376101998952575
5.0,0.0012394018891143117,0.0005379321130821926
5.1000000000000005,0.0012401208407204322,0.0005382439631777455
5.2,0.00124087182744292,0.0005385697084813959
5.300000000000001,0.001241637840357635,0.0005389019712406374
5.4,0.0012424168939010234,0.0005392398901909859
5.5,0.0012432146409759974,0.0005395859172956996
5.6000000000000005,0.0012440330496713131,0.0005399409062033214
5.7,0.0012448649163508724,0.000540301732282278
5.800000000000001,0.0012457128526053478,0.0005406695283063318
5.9,0.0012465791638048248,0.0005410452942206669
6.0,0.0012474556960290959,0.0005414254932141445
6.1000000000000005,0.0012483609345136314,0.0005418181433014147
6.2,0.0012492659320135786,0.0005422106885060982
6.300000000000001,0.0012502114176241256,0.0005426207951632943
6.4,0.0012511716921038115,0.0005430373161316878
6.5,0.0012521396572750918,0.0005434571725486129
6.6000000000000005,0.001253119022963635,0.0005438819735447228
6.7,0.0012541464929855454,0.0005443276394042572
6.800000000000001,0.0012551597116747864,0.0005447671232901052
6.9,0.0012561993531382072,0.0005452180675992622
7.0,0.0012572738159485767,0.0005456841151698415
7.1000000000000005,0.0012583461135064207,0.0005461492230648327
7.2,0.0012594361666327814,0.0005466220319076626
7.300000000000001,0.0012605393167717772,0.0005471005210353121
7.4,0.0012617267005796313,0.0005476155457563274
7.5,0.0012625250936808355,0.0005479618463995524
7.6000000000000005,0.0012638747108617017,0.0005485472382270005
7.7,0.0012650754035044174,0.000549068033883046
7.800000000000001,0.001266342223731543,0.0005496175114386816
7.9,0.0012675783113344713,0.0005501536581871599
8.0,0.0012687961848727462,0.0005506819040298318
8.1,0.0012700377292194128,0.000551220416292029
8.200000000000001,0.0012713222988580783,0.0005517775898084678
8.3,0.0012727249537189355,0.0005523859811863766
8.4,0.0012740019424399836,0.0005529398650458934
8.5,0.0012753784365796923,0.0005535369078106181
8.6,0.0012766355170524784,0.0005540821551837268
8.700000000000001,0.0012781383410634443,0.0005547339907127967
8.8,0.0012792563535066383,0.0005552189172733106
8.9,0.0012807130002268781,0.0005558507222053151
9.0,0.001282283572677398,0.000556531940174353
9.1,0.0012837365667357726,0.0005571621588991861
9.200000000000001,0.0012853747322864567,0.0005578726924384558
9.3,0.0012867346482985167,0.0005584625378848263
9.4,0.0012884162862558165,0.0005591919248295174
9.5,0.0012899926133911506,0.0005598756335656931
9.600000000000001,0.0012917094563020704,0.0005606202877306135
9.700000000000001,0.0012931599656520168,0.0005612494228212234
9.8,0.0012947604013431287,0.0005619435849922925
9.9,0.001297179978677258,0.0005629930340223481
10.0,0.0012972810525854813,0.0005630368729937591
10.100000000000001,0.0012993209827652425,0.0005639216547012646
10.200000000000001,0.0013007298114482706,0.0005645327068409585
10.3,0.001303042721090755,0.000565535884712334
10.4,0.0013053898581842198,0.0005665539056808131
10.5,0.0013071467976704465,0.0005673159393841814
10.600000000000001,0.0013076712283479448,0.0005675433993503726
10.700000000000001,0.0013093223191617518,0.0005682595219358553
10.8,0.0013133441071228238,0.0005700038748268695
10.9,0.0013157814161721298,0.0005710609950467776
11.0,0.001316434464600581,0.0005713442375978963
11.100000000000001,0.0013207911130436896,0.0005732338143562578
11.200000000000001,0.0013213498576462332,0.0005734761539063269
11.3,0.0013232280047232824,0.0005742907456923569
11.4,0.0013239373482294742,0.0005745984024536946
11.5,0.0013265191612320407,0.0005757181856256883
11.600000000000001,0.0013272381533066728,0.0005760300261417663
11.700000000000001,0.001329235926294353,0.0005768964970476713
11.8,0.0013270734272122864,0.0005759585813263779
11.9,0.0013370835425631149,0.0005803001358949727
12.0,0.00133688913698089,0.0005802158193534898
12.100000000000001,0.0013366231771372503,0.0005801004686567155
12.200000000000001,0.0013472542428390156,0.0005847112943822583
12.3,0.0013478419686174265,0.0005849661969512545
12.4,0.0013375910964131316,0.000580520269338653
12.5,0.001357480731421082,0.0005891466037745653
12.600000000000001,0.00134883441499635,0.0005853966305670931
12.700000000000001,0.0013518970070171771,0.0005867249037275503
12.8,0.0013539616833063094,0.000587620369744549
12.9,0.0013608928528795253,0.0005906264578972984
13.0,0.0013618730083821916,0.0005910515553032025
13.100000000000001,0.0013624562300716529,0.0005913045007113442
13.200000000000001,0.0013647903441996092,0.0005923168131843956
13.3,0.001366604035478062,0.000593103415038581
13.4,0.0013690770712432414,0.0005941759737357113
13.5,0.001366968558861977,0.0005932615094514659
13.600000000000001,0.0013701200726407292,0.0005946283239490444
13.700000000000001,0.0013822855762529683,0.0005999044739848151
13.8,0.0013806706112189221,0.0005992040711732556
13.9,0.0013814226988035606,0.0005995302481954936
14.0,0.001386440575352823,0.0006017064725459433
14.100000000000001,0.0013953068791411145,0.0006055517111147909
14.200000000000001,0.001400622490549161,0.0006078570290642181
14.3,0.0014034472653459368,0.0006090820955850721
14.4,0.0014045345762637711,0.0006095536466633302
14.5,0.0014082532585107568,0.0006111663817024161
14.600000000000001,0.0014102349281980698,0.0006120257987841874
14.700000000000001,0.001428856858775566,0.0006201017363125876
14.8,0.0014252744555807698,0.0006185481354635668
14.9,0.0014145676761707284,0.0006139048333692837
15.0,0.0014303804420808992,0.0006207624755297862
15.100000000000001,0.0014029527713548475,0.0006088676404967921
15.200000000000001,0.0014106875382962744,0.0006122220879939109
15.3,0.0014266244153579425,0.0006191335807302907
15.4,0.0014354099970839455,0.0006229436581078996
15.5,0.0014446709072554434,0.0006269598368330353
15.600000000000001,0.0014389053660791575,0.0006244594990723132
15.700000000000001,0.0014396626911125667,0.000624787928452144
15.8,0.0014428198559560928,0.0006261570944236534
15.9,0.0014497324410746282,0.0006291548564046793
16.0,0.0014569184963563581,0.0006322711915110146
16.1,0.0014632210369723469,0.0006350043595064981
16.2,0.001403891801912021,0.0006092748847504133
16.3,0.0014636190670871134,0.0006351769691885466
16.400000000000002,0.0014467918342843174,0.0006278796139875168
16.5,0.0014522620615466432,0.0006302518648607162
16.6,0.0014623288162306266,0.0006346174389394281
16.7,0.001472998323437565,0.0006392443562861003
16.8,0.0014795998419231016,0.0006421071330218403
16.900000000000002,0.0014603883291405648,0.0006337759258564367
17.0,0.0014874292639065426,0.0006455023709009392
17.1,0.0014924172271662745,0.0006476653930835638
17.2,0.001500961358983103,0.0006513705169650968
17.3,0.0015123475665394389,0.0006563080449281431
17.400000000000002,0.0017207434210136758,0.0007466671453076947
17.5,0.0014952315679408145,0.0006488858226447357
17.6,0.0015175482223008581,0.000658563244517721
17.7,0.0015258937319384692,0.0006621821463431892
17.8,0.001518989927442615,0.000659188419920818
17.900000000000002,0.0015581101196226147,0.00067615200419481
18.0,0.0016832008451617652,0.0007303903144893536
18.1,0.001367515392586148,0.0005934986720616767
18.2,0.0015209639975485268,0.0006600444465339373
18.3,0.0015393992466121728,0.0006680385410585367
18.400000000000002,0.0015007092334896556,0.0006512611843447375
18.5,0.0015322007162080597,0.0006649170530074543
18.6,0.0016927662981701616,0.0007345375375034972
18.7,0.0015444779580535764,0.0006702408016620822
18.8,0.001873557463767009,0.0008129143847059005
18.900000000000002,0.001619898434541983,0.00070294375621029
19.0,0.0016333822512306132,0.0007087901933427969
19.1,0.001680956526215446,0.0007294172559164544
19.200000000000003,0.0015184944561923786,0.0006589735657989126
19.3,0.0014538926904937703,0.0006309590104771249
19.400000000000002,0.0015245568108338066,0.0006616024131084534
19.5,0.0019366877147559336,0.0008402793707076877
19.6,0.0019545611892272025,0.0008480266487495496
19.700000000000003,0.001879062874989893,0.0008153008766215722
19.8,0.0025252962093768915,0.0010953397615886728
19.900000000000002,0.0021847821124512906,0.0009478038197819529
20.0,0.0019010972003337936,0.0008248522097471866
20.1,0.0020922707178150377,0.0009077123681780322
20.200000000000003,0.0018353067832137127,0.0007963330741255792
20.3,0.002182532979064981,0.0009468291618823382
20.400000000000002,0.0014448855203170721,0.0006270529076347417
20.5,0.0021562157398138963,0.0009354244711396441
20.6,0.003162830327287623,0.0013714320962795736
20.700000000000003,0.003347037599209812,0.0014511727476720455
20.8,0.001132001492560699,0.0004913439531199804
20.900000000000002,0.0007488154988836413,0.00032508474006749384
21.0,0.0015262322983415663,0.0006623289598172158
21.1,0.0023676782187649703,0.0010270541976353032
21.200000000000003,0.001550374785739962,0.0006727978046132144
21.3,0.0015147436334335303,0.000657347070945225
21.400000000000002,0.0030308618687426413,0.001314295864980482
21.5,0.001373527354222289,0.0005961060603443728
21.6,0.0018370391357144795,0.0007970840463425026
21.700000000000003,0.0019618533456157495,0.0008511874026191654
21.8,0.0013499517899817257,0.0005858812464201911
21.900000000000002,0.0013534693514896286,0.0005874068418093924
22.0,0.002193526956338714,0.0009515933613353335
22.1,0.0018392945176012138,0.0007980617490697117
22.200000000000003,0.001620779526182995,0.0007033257904230922
22.3,0.00243563181922329,0.0010564953638266047
22.400000000000002,0.0024298717448973483,0.0010539998662576406
22.5,0.0034708967021054196,0.0015047813227898168
22.6,0.003769301396542966,0.0016339093795573
22.700000000000003,0.0018614619243466663,0.00080767115047073
22.8,0.00173542547075498,0.0007530324786599301
22.900000000000002,0.0010697818560654355,0.0004643520235059677
23.0,0.0017296579057279053,0.0007505319891969563
23.1,0.0009280936037655557,0.00040287900499638897
23.200000000000003,0.0014868208900805171,0.0006452385498402955
23.3,0.0015970141691083709,0.0006930212059980943
23.400000000000002,0.001942790674045118,0.0008429247209606397
23.5,0.0019131416827442723,0.0008300731051244537
23.6,0.002144910754094276,0.0009305253141705148
23.700000000000003,0.002142187445922093,0.0009293451262495165
23.8,0.0016197094146849307,0.0007028617986845996
23.900000000000002,0.002545349427438106,0.0011040267392446706
24.0,0.001685894362201905,0.0007315581268413688
24.1,0.0020985452093129618,0.0009104316472133935
24.200000000000003,0.0015957024075071902,0.0006924524231543623
24.3,0.0008882987257222003,0.00038561199088789
24.400000000000002,0.002222220727591544,0.0009640274549462414
24.5,0.002399865529811679,0.0010409997262525023
24.6,0.001184537824894901,0.0005141337955743799
24.700000000000003,0.0005055887891953378,0.00021951893277892193
24.8,0.004363720862585061,0.001891016950336948
24.900000000000002,0.004752266490113862,0.0020589945336813536
25.0,0.0031955732904379013,0.0013856071192394708
25.1,0.0019390337786571834,0.0008412962826803548
25.200000000000003,0.0010031337975502836,0.00043543710854248663
25.3,0.0016670016877101625,0.0007233668747692334
25.400000000000002,0.00099472497019591,0.00043178884558023545
25.5,0.002979057645970716,0.0012918649807906457
25.6,0.0018105654825088832,0.0007856076155797347
25.700000000000003,0.002018645189372148,0.0008758027962172063
25.8,0.0013789006200650767,0.0005984364329582809
25.900000000000002,0.002885198210854523,0.0012512215178481286
26.0,0.007457170961340628,0.0032265924701992054
26.1,0.003914247976781049,0.0016966179673695363
26.200000000000003,0.001954807481923518,0.0008481334036364499
26.3,0.00233068302571302,0.001011025044809307
26.400000000000002,0.0013918771216055042,0.0006040642592438694
26.5,0.002493073364755987,0.0010813805841330488
26.6,0.0033559418205686606,0.001455026884773055
26.700000000000003,0.002135157298711582,0.000926298487870401
26.8,0.0017811594275314688,0.0007728596218109422
26.900000000000002,0.0015109018766239425,0.0006556811374241542
27.0,0.003599819433013317,0.0015605745046165932
27.1,0.0029552811755357224,0.0012815695392004865
27.200000000000003,0.0009265919086381627,0.0004022274313212035
27.3,0.0024490195756490035,0.0010622954269242765
27.400000000000002,0.007735884668477568,0.003346723715663769
27.5,0.0026697659214493462,0.0011579196073590132
27.6,0.0013892841086837447,0.0006029396918420937
27.700000000000003,0.002903420447020093,0.0012591124955327491
27.8,0.003999179170712943,0.0017333577474710048
27.900000000000002,0.0020948553247229877,0.0009088325036219444
28.0,0.0005076454923397369,0.00022041169531666986
28.1,0.0011197760474288719,0.0004860404808802007
28.200000000000003,0.0012620514766119282,0.000547756416431837
28.3,0.003784017209131389,0.0016402763299588556
28.400000000000002,0.0038652597188457874,0.0016754250724106679
28.5,0.0032950760290946517,0.0014286808214597907
28.6,0.007067100781514692,0.003058408516154281
28.700000000000003,0.005237966676317309,0.0022688830310009732
28.8,0.004910636622854667,0.002127443102626368
28.900000000000002,0.00763628089615752,0.0033037962906752273
29.0,0.00261689099750338,0.0011350168591390064
29.1,0.0030662707157177263,0.0013296269938710985
29.200000000000003,0.0018057774506961696,0.0007835319529382138
29.3,0.0031521319853777424,0.001366800489633246
29.400000000000002,0.0043362450915677905,0.001879136056284257
29.5,0.0015805738510380133,0.0006858925924776579
29.6,0.005993800870784661,0.0025953045211950113
29.700000000000003,0.004481773489071921,0.0019420608006087319
29.8,0.0054720364655346165,0.0023699967849860003
29.900000000000002,0.011190629838815051,0.004833036582938366
30.0,0.008476993193211881,0.003665994920419146
30.1,0.0039421024905386,0.0017086676955475049
30.200000000000003,0.002516494007580861,0.0010915266264337588
30.3,0.0029698737399611393,0.001287888289619755
30.400000000000002,0.003697207469174636,0.0016027158381357982
30.5,0.005082492072240527,0.0022017079072863045
30.6,0.0047685431673963235,0.002066029913552678
30.700000000000003,0.0021640177944535427,0.0009388055568771903
30.8,0.002691103021456739,0.0011671614200789537
30.900000000000002,0.007675281418108401,0.0033206053159331897
31.0,0.014397426285244704,0.006208138653258605
31.1,0.013657151775902073,0.005891088853655133
31.200000000000003,0.007946687290729218,0.003437561843871016
31.3,0.0035399648411255846,0.0015346724531652848
31.400000000000002,0.001215227651555174,0.0005274462445667718
31.5,0.004491130843189213,0.0019461064970436003
31.6,0.0033925649275526465,0.0014708786103097195
31.700000000000003,0.0021393913959520242,0.0009281334112031716
31.8,0.0034028629501531723,0.0014753358403072506
31.900000000000002,0.003701379230816276,0.0016045209336188863
32.0,0.003408172953486383,0.0014776341186256102
32.1,0.0064593536035703995,0.0027962403651335867
32.2,0.002903277178482659,0.0012590504549230227
32.300000000000004,0.01298834972586405,0.0056044506131283575
32.4,0.027210179768988405,0.011659314653508791
32.5,0.016238107681628644,0.006995476389612507
32.6,0.015567062670163369,0.006708607195226195
32.7,0.000814908920756472,0.00035376632344123125
32.800000000000004,0.0024224120542409426,0.0010507680047234756
32.9,0.007203068332947921,0.0031170401320124255
33.0,0.0046226142181710886,0.002002949972868252
33.1,0.004337131489618071,0.0018795193518329509
33.2,0.004416914626197494,0.0019140177276301708
33.300000000000004,0.010688343521117293,0.004617256921075946
33.4,0.008839996056157014,0.003822291767006804
33.5,0.017586827622550094,0.007571476519878916
33.6,0.020445814467249728,0.008789948686928055
33.7,0.013655452213913224,0.005890360687321052
33.800000000000004,0.0023219813731820247,0.0010072547361221426
33.9,0.004695742449533193,0.0020345618747458953
34.0,0.0022043696480987638,0.0009562919505808782
34.1,0.005224220907968774,0.0022629443852703467
34.2,0.008566207197571426,0.0037044126893787934
34.300000000000004,0.003027623383124272,0.0013128936561773896
34.4,0.007778667538067125,0.003365161056307273
34.5,0.010465840274943971,0.004521636375959965
34.6,0.012683431711774138,0.005473704642171161
34.7,0.014740961663798601,0.006355191729141485
34.800000000000004,0.022629818752682173,0.00971845212114566
34.9,0.03980009597849786,0.016949853185010223
35.0,0.0264223673969243,0.011326107446388626
35.1,0.02259381075451872,0.009703159832632324
35.2,0.006065768149511186,0.0026263721819372904
35.300000000000004,0.009144855090736825,0.0039535103907823175
35.4,0.007263156404971408,0.003142948650899804
35.5,0.008493172787067592,0.0036729625081898323
35.6,0.0032488598767381484,0.0014086748603765673
35.7,0.009117161966172203,0.003941592244293715
35.800000000000004,0.011427623667448572,0.004934810718827097
35.9,0.017412369007488254,0.007497013184313067
36.0,0.030102233369136134,0.012880328768067198
36.1,0.02629024739448474,0.01127020192149993
36.2,0.019331352404602185,0.008315382366528084
36.300000000000004,0.01088692324422502,0.004702578580535021
36.4,0.010761546762389067,0.0046487113379363254
36.5,0.004627171630753956,0.0020049201202839107
36.6,0.006651693158250771,0.0028792283430078744
36.7,0.01115144910133722,0.004816208591014626
36.800000000000004,0.0027941058008953646,0.0012117726080083855
36.9,0.002432044091914551,0.0010549410166828938
37.0,0.00878567639048616,0.003798907120996863
37.1,0.020292022632500014,0.0087244910430252
37.2,0.018103257584278675,0.007791827042887815
37.300000000000004,0.04507743529558046,0.019148470806539527
37.4,0.060740643915227155,0.025609209833978658
37.5,0.034490227710332944,0.01472639246765618
37.6,0.05462134615722433,0.023096557460523394
