Frequency (Hz),Power,Log Power
0.0,0.0002030123902880543,8.815821255812475e-05
0.1,0.00020301507121087638,8.815937663178767e-05
0.2,0.00020302002591589008,8.81615279961033e-05
0.30000000000000004,0.00020302965175174402,8.816570759486224e-05
0.4,0.00020304385582406922,8.817187509288115e-05
0.5,0.00020306093442494752,8.817929072928174e-05
0.6000000000000001,0.00020308252468500304,8.81886653563514e-05
0.7000000000000001,0.00020310740780954298,8.819946976567131e-05
0.8,0.00020313661276604445,8.82121507413179e-05
0.9,0.00020316908115587022,8.822624871987654e-05
1.0,0.00020320590372230684,8.824223730856169e-05
1.1,0.00020324580111310124,8.82595610046692e-05
1.2000000000000002,0.00020329020208296837,8.82788401820002e-05
1.3,0.00020333899828331044,8.830002779482667e-05
1.4000000000000001,0.00020338971923326688,8.832205114471399e-05
1.5,0.00020344564937202852,8.834633635530069e-05
1.6,0.00020350393758549053,8.837164545496218e-05
1.7000000000000002,0.00020356669596250488,8.839889552550499e-05
1.8,0.00020363370817283685,8.842799263444872e-05
1.9000000000000001,0.00020370306569355648,8.845810808946088e-05
2.0,0.00020377689602949143,8.849016566550547e-05
2.1,0.00020385367009808787,8.852350142553955e-05
2.2,0.0002039343597618283,8.855853735757837e-05
2.3000000000000003,0.00020401796330191726,8.859483850913786e-05
2.4000000000000004,0.00020410542199190884,8.863281358637027e-05
2.5,0.0002041958827979641,8.86720921965685e-05
2.6,0.0002042902298890424,8.871305825055378e-05
2.7,0.0002043883712347964,8.875567178782476e-05
2.8000000000000003,0.00020448787171764902,8.879887546594752e-05
2.9000000000000004,0.00020459223099021558,8.884418885375176e-05
3.0,0.0002046986014443777,8.889037550317208e-05
3.1,0.0002048087772716447,8.893821446182615e-05
3.2,0.00020492252651351954,8.898760501143495e-05
3.3000000000000003,0.00020503800507410628,8.903774643512874e-05
3.4000000000000004,0.00020515742331228722,8.908959848227559e-05
3.5,0.0002052791600523047,8.914245722903386e-05
3.6,0.00020540395982568174,8.91966459547687e-05
3.7,0.00020553083064094117,8.925173393103238e-05
3.8000000000000003,0.00020566167868685993,8.930854883442662e-05
3.9000000000000004,0.00020579409435012664,8.936604439778825e-05
4.0,0.00020592984389194348,8.942498754057434e-05
4.1000000000000005,0.00020606872054688334,8.948528848358316e-05
4.2,0.00020620774496816913,8.95456535790531e-05
4.3,0.00020635028272817,8.960754417487359e-05
4.4,0.00020649637585111206,8.967097851767893e-05
4.5,0.00020664279956579537,8.97345563957406e-05
4.6000000000000005,0.00020679342908494006,8.97999604445836e-05
4.7,0.00020694431732242016,8.986547682019785e-05
4.800000000000001,0.0002070979525886005,8.993218595827401e-05
4.9,0.00020725502843635244,9.00003890021831e-05
5.0,0.00020741297530026907,9.006897023434848e-05
5.1000000000000005,0.00020756963470869302,9.013699243691087e-05
5.2,0.0002077320833044843,9.020752831887034e-05
5.300000000000001,0.00020789533670234866,9.027841363779404e-05
5.4,0.00020806207007393544,9.03508099641149e-05
5.5,0.0002082248290926579,9.042148059818978e-05
5.6000000000000005,0.00020839069662212481,9.049350094857576e-05
5.7,0.00020855744635923771,9.056590434503901e-05
5.800000000000001,0.00020872638103991837,9.063925644034271e-05
5.9,0.0002088978337184301,9.071370184742004e-05
6.0,0.00020907577671078507,9.079096536003242e-05
6.1000000000000005,0.00020923676624191376,9.086086760451424e-05
6.2,0.00020941528240878149,9.093837996540108e-05
6.300000000000001,0.00020960233395463535,9.101959840359878e-05
6.4,0.00020976615737114914,9.109073109403457e-05
6.5,0.00020994380223161982,9.116786508968186e-05
6.6000000000000005,0.00021013228676166677,9.1249705691338e-05
6.7,0.00021028393560506995,9.131555210579915e-05
6.800000000000001,0.00021046919799758585,9.139599361757353e-05
6.9,0.00021064946205323246,9.147426482150968e-05
7.0,0.00021083817502877465,9.155620455712642e-05
7.1000000000000005,0.00021102194048137047,9.163599604874531e-05
7.2,0.00021116778358670993,9.169932153694604e-05
7.300000000000001,0.00021134840186864961,9.17777464921937e-05
7.4,0.00021151632042800374,9.185065718021903e-05
7.5,0.00021171902528406054,9.19386721552121e-05
7.6000000000000005,0.00021190061640450925,9.201751947611142e-05
7.7,0.00021205830404307841,9.20859878334919e-05
7.800000000000001,0.00021224668561374622,9.216778355701016e-05
7.9,0.00021241384549698978,9.224036476072308e-05
8.0,0.00021262750152344008,9.233313467850008e-05
8.1,0.00021275126231388785,9.23868718774642e-05
8.200000000000001,0.0002128849026808354,9.244489880223075e-05
8.3,0.00021313396998455582,9.255304432182114e-05
8.4,0.00021328970345079465,9.262066408956751e-05
8.5,0.00021335343538622097,9.264833661433272e-05
8.6,0.0002136978727066393,9.279789190797437e-05
8.700000000000001,0.00021377163895664063,9.282992133759297e-05
8.8,0.00021395498766791857,9.290953164536466e-05
8.9,0.00021408022562554162,9.29639101613944e-05
9.0,0.000214228856401913,9.30284458667912e-05
9.1,0.00021436878767752161,9.308920422712228e-05
9.200000000000001,0.00021458633047676063,9.318366160546116e-05
9.3,0.00021474778886323677,9.325376704242037e-05
9.4,0.00021498981946318458,9.335885701589785e-05
9.5,0.00021487760963988863,9.33101353806876e-05
9.600000000000001,0.00021501029985703806,9.336774962601167e-05
9.700000000000001,0.00021483719202934084,9.329258600614534e-05
9.8,0.00021544540868470599,9.355667432702268e-05
9.9,0.00021571890741407983,9.367542771491513e-05
10.0,0.00021528604742601713,9.34874795139602e-05
10.100000000000001,0.0002156246797228617,9.36345139725224e-05
10.200000000000001,0.00021572893023480476,9.367977963186716e-05
10.3,0.00021494505664772408,9.333942095027283e-05
10.4,0.00021614110796997843,9.3858747502334e-05
10.5,0.00021625965212412312,9.391021944604539e-05
10.600000000000001,0.00021464185489824186,9.320777038124863e-05
10.700000000000001,0.0002180978968271561,9.470838563224561e-05
10.8,0.0002178271041462254,9.459080749279655e-05
10.9,0.0002170025592476637,9.423279003156736e-05
11.0,0.0002175466943479655,9.446905356897042e-05
11.100000000000001,0.0002163512684401319,9.394999930197514e-05
11.200000000000001,0.00021630163389260056,9.392844795397467e-05
11.3,0.00021827100792658774,9.478355042770547e-05
11.4,0.00021588111425761142,9.374585805311182e-05
11.5,0.0002166141147448726,9.40641272949693e-05
11.600000000000001,0.0002176042126267251,9.449402800624014e-05
11.700000000000001,0.00021594023426907394,9.377152800538619e-05
11.8,0.00021382119289721906,9.285143774038173e-05
11.9,0.0002172979182783737,9.436103498039789e-05
12.0,0.0002119058244108799,9.201978080530392e-05
12.100000000000001,0.0002217629754595396,9.62997590665713e-05
12.200000000000001,0.00021800689864925034,9.466887424128182e-05
12.3,0.00021743320081162913,9.44197746700685e-05
12.4,0.00022197046375645695,9.638985010081057e-05
12.5,0.00022313811725814555,9.689684273997199e-05
12.600000000000001,0.00022135678511746645,9.612339191831028e-05
12.700000000000001,0.00021890595445011812,9.50592439357752e-05
12.8,0.00021813882115918185,9.472615496805353e-05
12.9,0.00021827911863923634,9.478707209671598e-05
13.0,0.0002213081037945889,9.610225456675316e-05
13.100000000000001,0.0002194577973246033,9.52988537329267e-05
13.200000000000001,0.00022002135992863804,9.55435520921005e-05
13.3,0.00021776510191853164,9.456388613086302e-05
13.4,0.00022252222592125724,9.662942411987636e-05
13.5,0.00021754950966065205,9.447027597778629e-05
13.600000000000001,0.0002176836379611584,9.452851448497791e-05
13.700000000000001,0.00022037062766918668,9.569520375142168e-05
13.8,0.00021912720587170418,9.515531116698513e-05
13.9,0.00022103718458371546,9.598462186557803e-05
14.0,0.0002211948900593193,9.605309734235683e-05
14.100000000000001,0.00021877804051324078,9.500370377329851e-05
14.200000000000001,0.0002218496743383573,9.633740356140949e-05
14.3,0.00021475880121617756,9.325854861971436e-05
14.4,0.0002231155343202812,9.688703728248963e-05
14.5,0.00021987276412357924,9.547903194497441e-05
14.600000000000001,0.0002173902954398249,9.440114515417082e-05
14.700000000000001,0.00021325036710538852,9.260358417440656e-05
14.8,0.00022310061231067908,9.688055818168544e-05
14.9,0.0002155321409643559,9.359433356230493e-05
15.0,0.00021943305539769636,9.528811080806566e-05
15.100000000000001,0.00022148652240676445,9.617972363411303e-05
15.200000000000001,0.0002216899601827598,9.626805596421683e-05
15.3,0.00021983371270616926,9.546207585772341e-05
15.4,0.00021239155893079749,9.223068788332286e-05
15.5,0.00022462012008954172,9.754032432969834e-05
15.600000000000001,0.00022521300872433415,9.77977546918459e-05
15.700000000000001,0.00021364257577748347,9.277388188705451e-05
15.8,0.000218301375215214,9.479673589540561e-05
15.9,0.00021177170699317828,9.196154668714981e-05
16.0,0.0002319306973303158,0.00010071454308888014
16.1,0.00021643360756164347,9.398575099170117e-05
16.2,0.0002129450652693265,9.247102152050068e-05
16.3,0.0002074009114824024,9.006373207121586e-05
16.400000000000002,0.0002273296410796826,9.871678849301277e-05
16.5,0.00021744784696573928,9.442613403117823e-05
16.6,0.00021795556916680655,9.464658698850106e-05
16.7,0.00022663835266006224,9.841663387726313e-05
16.8,0.00022734076195480413,9.872161712998768e-05
16.900000000000002,0.00021825826961620781,9.477801945700248e-05
17.0,0.00022672721068664817,9.845521568201076e-05
17.1,0.00022815754556539689,9.907626097511184e-05
17.2,0.00021023492169485364,9.12942701097754e-05
17.3,0.0002171823146612664,9.431083987178434e-05
17.400000000000002,0.00024558310180627945,0.00010664229172664452
17.5,0.00023837335614686493,0.00010351189645834125
17.6,0.0002770792120121228,0.000120317304884613
17.7,0.00023656044435504972,0.00010272474579321402
17.8,0.00016453133664531605,7.144917395238539e-05
17.900000000000002,0.00029837648698461435,0.0001295639333725502
18.0,0.00023210585312277487,0.00010079059463760661
18.1,0.0002584648945316638,0.00011223537363352264
18.2,0.00035100756080563524,0.00015241389911326863
18.3,0.00030560587974424514,0.00013270267088448992
18.400000000000002,0.0002637173645687715,0.00011451589696260429
18.5,0.0003292691000617559,0.00014297621568471605
18.6,0.00028079635427716916,0.0001219311890855171
18.7,0.0007448887012435619,0.0003233806262418074
18.8,0.001840004411997195,0.0007983694861603222
18.900000000000002,0.00034071624609646273,0.00014794598320544297
19.0,0.00016108691237448077,6.995352300381327e-05
19.1,0.0003109726116672925,0.00013503269462328415
19.200000000000003,0.00017575092015002856,7.632094826859914e-05
19.3,0.0001829479079272459,7.944599987034542e-05
19.400000000000002,4.768604421832569e-05,2.0709292099587222e-05
19.5,0.00023515544120245838,0.00010211470456010189
19.6,8.445300057360219e-05,3.6675923455232086e-05
19.700000000000003,9.01889597864551e-05,3.9166801383841344e-05
19.8,0.0001786408137851757,7.757579077468845e-05
19.900000000000002,0.0002220945270449566,9.644371814197088e-05
20.0,0.00023863120298119105,0.0001036238512142018
20.1,0.0001334415197561986,5.794904936829913e-05
20.200000000000003,0.00020232756720173963,8.786085793554628e-05
20.3,0.0002700116122496806,0.00011724872470345665
20.400000000000002,0.0002857915717189782,0.0001240999700537962
20.5,0.000419372843492214,0.0001820931319997079
20.6,0.00031131723987338507,0.00013518231819692703
20.700000000000003,0.001630413094771085,0.0007075028059609627
20.8,0.001241293890002668,0.0005387527807143206
20.900000000000002,6.162670384367549e-05,2.6763312758246284e-05
21.0,0.0004551473381102881,0.00019762300701228104
21.1,0.0015208557693654596,0.0006599975150099534
21.200000000000003,0.0007515229280277104,0.00032625968020095716
21.3,0.0008466034516634229,0.00036751965765428207
21.400000000000002,0.0015306348193761803,0.0006642380325182344
21.5,0.0007967226470183312,0.0003458744844784946
21.6,0.0034488287026831943,0.0014952303574425627
21.700000000000003,0.0015453342110985726,0.0006706120940227731
21.8,0.0031496227075035843,0.0013657141470312345
21.900000000000002,0.0022327507377668484,0.0009685904163284537
22.0,0.0011079541534416834,0.00048091200998066317
22.1,0.0023191252993961433,0.0010060172307342658
22.200000000000003,0.0003858215113261791,0.0001675278375245487
22.3,0.00037170104931884127,0.00016139772064370652
22.400000000000002,0.0023778799167618173,0.0010314742509713673
22.5,0.0007420094487876282,0.00032213111173855593
22.6,0.0015724575526008446,0.00068237327710886
22.700000000000003,0.0011423543409250494,0.0004958350308821939
22.8,0.0009012955652803224,0.0003912514004626584
22.900000000000002,0.0007009400986534371,0.00030430777868267083
23.0,0.0008895809315364496,0.00038616835122679287
23.1,0.0024994372781593573,0.0010841375146050868
23.200000000000003,0.0017611055053293428,0.0007641657121234405
23.3,0.00157691986543644,0.0006843081880674876
23.400000000000002,0.00035097748898692873,0.00015240084367075657
23.5,0.000306008885001313,0.00013287764033690475
23.6,0.0005663403799784813,0.00024588888007313203
23.700000000000003,0.0004520744553500964,0.00019628907607157942
23.8,0.00033867175377119316,0.00014705837298617402
23.900000000000002,0.0007774312114404975,0.000337502909532366
24.0,0.0014216759804418784,0.0006169875590094459
24.1,0.002076060663776267,0.0009006870730365562
24.200000000000003,0.0003478948070885927,0.0001510625195916222
24.3,0.0007423273491588665,0.00032226907172608967
24.400000000000002,0.000784293902548483,0.0003404810129220886
24.5,0.0006457656249487076,0.00028036193320829696
24.6,0.0011157260614255752,0.00048428355810948984
24.700000000000003,0.0023073064688138834,0.0010008962238243295
24.8,0.007298836742509443,0.0031583324154695392
24.900000000000002,0.003055804569646382,0.0013250954755337759
25.0,0.0015292861204247083,0.0006636531947845026
25.1,0.0015124452838038108,0.0006563504189105472
25.200000000000003,0.00038285232568743106,0.00016623883199833002
25.3,0.0007652739275407934,0.00033222713769984343
25.400000000000002,0.0011859256815023678,0.0005147358205015935
25.5,0.0006880515863450265,0.000298714253586986
25.6,0.0009179360195166486,0.0003984716902244324
25.700000000000003,0.00018644586026935386,8.096486074166512e-05
25.8,0.0007373584049874453,0.0003201126820810551
25.900000000000002,0.0021965537740097512,0.0009529050124205739
26.0,0.006754102626616886,0.00292340807780106
26.1,0.0019529239689717334,0.00084731699949894
26.200000000000003,0.00042871581781389964,0.00018614901431833754
26.3,0.0010352266624416944,0.00044936067205380474
26.400000000000002,0.00022469625080928028,9.757338005494044e-05
26.5,0.0007802088714445381,0.0003387082931677767
26.6,0.0011929823667856843,0.0005177968590161557
26.700000000000003,0.00202725813156157,0.0008795357978012127
26.8,0.0007115995985043518,0.0003089338733765648
26.900000000000002,0.00020714924119158085,8.99544557029172e-05
27.0,0.0011966476067386694,0.000519386752873535
27.1,0.0004938754276832363,0.0002144344254012275
27.200000000000003,0.001513946402225722,0.000657001361354509
27.3,0.001697770891347162,0.0007367073263296781
27.400000000000002,0.002496888620635521,0.0010830334049521122
27.5,8.63747303138099e-05,3.75104487970877e-05
27.6,0.0004992569582894784,0.0002167704344645945
27.700000000000003,0.0012985251091442752,0.0005635764595612916
27.8,0.0009496552068205745,0.0004122343067712313
27.900000000000002,0.000977494510446442,0.00042431312387220503
28.0,0.0017752228638189317,0.0007702859813738122
28.1,0.0006773755121291829,0.00029408085674943594
28.200000000000003,0.002086968429212282,0.0009054144153435731
28.3,0.0017573989130677545,0.0007625587865449495
28.400000000000002,0.002179985676469579,0.000945725290251655
28.5,0.00209006181579301,0.0009067550561175172
28.6,0.0032197973781874258,0.001396093868686321
28.700000000000003,0.0034294582273425053,0.0014868466994923835
28.8,0.0018320914805833985,0.0007949392418046779
28.900000000000002,0.006449751456681739,0.002792096949618456
29.0,0.0050451896741886765,0.0021855893036924977
29.1,0.0012239496031567238,0.0005312295259718309
29.200000000000003,0.0030618521430948367,0.00132771389401855
29.3,0.006467982109085734,0.0027999636116372807
29.400000000000002,0.007567076685352887,0.0032739680286532893
29.5,0.0014533828379786253,0.0006307379057494163
29.6,0.003617335616297567,0.0015681543339593445
29.700000000000003,0.00557187024033219,0.0024131159405581513
29.8,0.0035962344659737425,0.0015590231550111455
29.900000000000002,0.00202116370692826,0.0008768943696204078
30.0,0.0018936454093665086,0.0008216220668303132
30.1,0.0019137830469140988,0.0008303511140845944
30.200000000000003,0.0022947512408468805,0.00099545607553731
30.3,0.0021448297959702814,0.0009304902297555227
30.400000000000002,0.0005549274389615892,0.00024093508003542475
30.5,0.0014836178663012638,0.0006438495572463443
30.6,0.0011368974313204338,0.0004934678228841654
30.700000000000003,0.00025113958852924405,0.0001090548440644559
30.8,0.00300965333774265,0.001305112852062121
30.900000000000002,0.0015501760440741195,0.0006727116258053242
31.0,0.0008863757070417538,0.00038477757489480564
31.1,0.0015772837027499902,0.0006844659517955457
31.200000000000003,0.0016479757445515598,0.0007151176855802408
31.3,0.0024592222782970504,0.001066715556851515
31.400000000000002,0.0015647155188123533,0.0006790162203897563
31.5,0.0015887016741248962,0.0006894168764807351
31.6,0.0018439068255968903,0.0008000611668519793
31.700000000000003,0.0019474215718614974,0.0008449319899773735
31.8,0.0006300612492750545,0.0002735459575138315
31.900000000000002,0.003201609927615266,0.001388220438513801
32.0,0.0007539560515614009,0.0003273155775098582
32.1,0.00044274262143952135,0.00019223812452849232
32.2,0.001869732131473955,0.0008112561675930659
32.300000000000004,0.0018173181671989884,0.0007885349592475658
32.4,0.003398656790235694,0.0014735153194194639
32.5,0.0026969729186040285,0.0011697038346579344
32.6,0.0017191410534173656,0.000745972440754403
32.7,0.0013928307580776786,0.0006044778424472996
32.800000000000004,0.0005453854209257633,0.00023679331287609586
32.9,0.0012935804657722766,0.0005614318078117859
33.0,0.0008420659997633321,0.00036555072976640043
33.1,0.003188553720294424,0.0013825682588960583
33.2,0.002168124334905203,0.0009405851500098814
33.300000000000004,0.00274077962323606,0.0011886772583616135
33.4,0.011685883633443223,0.005045690190821589
33.5,0.0060194608310954745,0.002606381962265165
33.6,0.003685302367110002,0.0015975645327837963
33.7,0.00019618130020983347,8.5192099858477e-05
33.800000000000004,0.0015174308390288685,0.0006585123428531703
33.9,0.0010950889877463373,0.0004753308872373797
34.0,0.0011648723862038746,0.000505603224971225
34.1,0.007219166498324708,0.003123981421947812
34.2,0.0048298792953697205,0.0020925406249771507
34.300000000000004,0.006154398974640108,0.0026646302999443366
34.4,0.0014371663928900835,0.0006237053570952761
34.5,0.0017710321282033903,0.0007684691894245818
34.6,0.004698778259352671,0.0020358741461182378
34.7,0.002185744178592303,0.0009482207287425142
34.800000000000004,0.002159313139308548,0.0009367667583089074
34.9,0.015013379697763328,0.006471767067566788
35.0,0.013712515241218519,0.005914808304412546
35.1,0.007612411981490563,0.00329350858974192
35.2,0.003729808605629259,0.001616821948648306
35.300000000000004,0.0036822356115148985,0.0015962375460640565
35.4,0.007238133562084315,0.0031321595959192265
35.5,0.005517185173224545,0.002389497470924189
35.6,0.003493369286840137,0.0015145071756216357
35.7,0.0048133591770249595,0.002085400455915926
35.800000000000004,0.0022670904394537813,0.0009834704803203887
35.9,0.004039276503007844,0.0017507020867766994
36.0,0.003250657170192939,0.0014094528866089378
36.1,0.008552695349443766,0.003698594369918445
36.2,0.002078969894018121,0.0009019479162561131
36.300000000000004,0.005521495102787223,0.002391358975275025
36.4,0.00254661791540121,0.0011045762375536893
36.5,0.0014907276043482154,0.0006469326920938459
36.6,0.004169904328681145,0.0018072011253174984
36.7,0.003369045709770398,0.0014606987599001657
36.800000000000004,0.005564947569516968,0.0024101261114142696
36.9,0.003939719255063394,0.0017076367324651742
37.0,0.0036175063361993816,0.0015682282094319504
