Frequency (Hz),Power,Log Power
0.0,0.04599277553533315,0.019528684955753793
0.5,0.045994706054943296,0.019529486503584534
1.0,0.04600049480975576,0.019531889973985497
1.5,0.04601011512952071,0.019535884267100723
2.0,0.04602353092176513,0.019541454353942493
2.5,0.046040690226679504,0.019548578601240842
3.0,0.04606152052506451,0.019557226824639146
3.5,0.0460859414625162,0.019567365573050822
4.0,0.046113855407993315,0.0195789542105297
4.5,0.046145151821209165,0.019591946731548432
5.0,0.046179709504922666,0.01960629269820286
5.5,0.0462173846220828,0.0196219322682782
6.0,0.0462580304046084,0.019638804379595653
6.5,0.04630148752202763,0.019656842754261356
7.0,0.04634756141842687,0.0196759664950332
7.5,0.04639616264282582,0.019696138332923656
8.0,0.046446974698931665,0.01971722677017115
8.5,0.04649983884038275,0.01973916579392377
9.0,0.04655464662771762,0.019761910275518043
9.5,0.04661096782700555,0.01978528156148022
10.0,0.04666880618337899,0.01980928110452619
10.5,0.04672843271689743,0.01983402124844907
11.0,0.04678800679434737,0.019858738219970883
11.5,0.04684953790249712,0.019884265676535864
12.0,0.04690453611526322,0.019907081556032616
12.5,0.04696958667491154,0.019934066080843957
13.0,0.04703110750411319,0.019959584846646033
13.5,0.0470920679444885,0.01998486968488974
14.0,0.04715515178145139,0.020011033704152203
14.5,0.04721235231684882,0.020034756261766908
15.0,0.04726535954468668,0.020056738588363616
15.5,0.047327172317849255,0.020082371207496078
16.0,0.04738346031727506,0.02010571148865289
16.5,0.04743342345149345,0.0201264280616974
17.0,0.047489080237847515,0.020149504271110563
17.5,0.047522755930036936,0.020163466165779458
18.0,0.04757804813158966,0.020186389261399214
18.5,0.04759051878917566,0.02019155919174357
19.0,0.04762572591668581,0.02020615459328405
19.5,0.047627130304223886,0.020206736783406273
20.0,0.04818242931668818,0.020436875348674142
20.5,0.0474728929579228,0.020142792887860268
21.0,0.04855374196742765,0.020590694450162712
21.5,0.047953856999529684,0.02034216042283727
22.0,0.04772776436672631,0.02024845269337551
22.5,0.04818567878989385,0.02043822170409411
23.0,0.04799136711520173,0.020357705138477934
23.5,0.048226662812976974,0.020455202271056353
24.0,0.04820912237553457,0.02044793496981541
24.5,0.04805669542411626,0.020384776773513292
25.0,0.04785851843662297,0.020302648286830396
25.5,0.047816646117992745,0.020285293577249855
26.0,0.04772265639474617,0.020246335378622863
26.5,0.04823944636700539,0.020460498638070663
27.0,0.04813334853191421,0.020416539181552815
27.5,0.04843164593701672,0.020540121248617746
28.0,0.0478668534433929,0.02030610279236378
28.5,0.0511004584021503,0.021644225490431393
29.0,0.046628292474306714,0.01979247041835549
29.5,0.047508534491880805,0.02015757003225228
30.0,0.047401506859565436,0.020113194370053242
30.5,0.04749820857778265,0.020153288912367263
31.0,0.047537949924423596,0.020169765427563966
31.5,0.04740776883669962,0.02011579082801887
32.0,0.04642244386054696,0.01970704590780773
32.5,0.04748871211307034,0.020149351644614923
33.0,0.04684971141363712,0.019884337659109897
33.5,0.04859170464526404,0.020606417710112138
34.0,0.04734317908341252,0.020089008671909242
34.5,0.04621890205264996,0.019622562167239715
35.0,0.044929963432797565,0.019087182778192935
35.5,0.0393067000564006,0.0167437270439274
36.0,0.056671612575697215,0.023940040282921526
36.5,0.05064849437596368,0.02145744249205493
37.0,0.05287786180590166,0.022377994148196658
37.5,0.05219337222376347,0.0220955618446108
38.0,0.050761154096160964,0.02150400884802163
38.5,0.05417035769748792,0.022910800088570975
39.0,0.05344027121048674,0.022609916670210572
39.5,0.05206764533590081,0.02204366477173346
40.0,0.0550717261674169,0.02328198496059297
40.5,0.05782936218613841,0.02441561756899175
41.0,0.05781663007330584,0.024410390336868405
41.5,0.06263036595168169,0.026382222242665367
42.0,0.05933100954893304,0.025031685469650688
42.5,0.0747022379937573,0.031288153266434575
43.0,0.03161254555668199,0.013516615002260465
43.5,0.04600667678957937,0.01953445669532478
44.0,0.05209375596551867,0.02205444312966321
44.5,0.06407421035063983,0.026971917453295375
45.0,0.05609731250887593,0.023703937457705954
45.5,0.05429318661932071,0.022961399894457387
46.0,0.06847394402474793,0.028763935855026977
46.5,0.06410204228234634,0.02698327671392676
47.0,0.07045259038762369,0.029567437451110956
47.5,0.06482333023593852,0.02727755794532907
48.0,0.06610552651321197,0.027800194666284007
48.5,0.0752474951685487,0.03150843952118225
49.0,0.07294280313464206,0.030576571038557536
49.5,0.05287228625219292,0.022375694319594967
50.0,0.198047334172991,0.07847397712176747
50.5,0.08313723707883536,0.03468348666230074
51.0,0.07980739408937991,0.033346297020407846
51.5,0.08820243880679869,0.03670969488283216
52.0,0.08578885136268795,0.03574537810385467
52.5,0.08549831001704078,0.03562915164963274
53.0,0.08158242946154518,0.034059623447896765
53.5,0.08195732417020608,0.034210131156037875
54.0,0.09880215703405916,0.04091950330319275
54.5,0.08581992433991362,0.035757806514254684
55.0,0.10212378917869751,0.042230376673599766
55.5,0.07579167138654937,0.03172817771784278
56.0,0.0767250169285274,0.032104803688915794
56.5,0.0925246751527316,0.038431254486079154
57.0,0.1873956682767813,0.07459546024868693
57.5,0.1092522954393223,0.04503033609997382
58.0,0.07777113735720668,0.032526549037016746
58.5,0.10275093363552439,0.042477434142655056
59.0,0.08177607551681218,0.03413737238620343
59.5,0.09322602585676412,0.038709962163906514
60.0,0.1829740564347238,0.07297522030773744
60.5,0.07684833033214636,0.03215453900985396
61.0,0.08727354971532222,0.03633882300617383
61.5,0.08207839796576795,0.03425872710187428
62.0,0.08552559715980645,0.03564006876159225
62.5,0.092243085474584,0.038319304057057364
63.0,0.10450844110712702,0.04316903927693147
63.5,0.08755972033801876,0.03645311436335369
64.0,0.17331664474042446,0.06941523164310931
64.5,0.1752467062664971,0.07012904271305372
65.0,0.10572017909874008,0.04364523542350551
65.5,0.1127450520408393,0.046395671814467764
66.0,0.09169143038360474,0.03809990117177675
66.5,0.09916768157842135,0.04106395050286888
67.0,0.08518556712179277,0.03550400904731194
67.5,0.07258127056846041,0.030430209035975958
68.0,0.1074386972783586,0.044319695011950086
68.5,0.07045721784817416,0.02956931485909385
69.0,0.07649018601652169,0.032010074867078346
69.5,0.12113072700639516,0.04965625550967352
70.0,0.10566814481475108,0.04362479740077927
70.5,0.12296335106837636,0.05036558289681614
71.0,0.12956049798160738,0.0529094962001309
71.5,0.14128234874759907,0.05739310045120501
72.0,0.041608142222603936,0.01770436610557451
72.5,0.0369441207090877,0.015755353571713895
73.0,0.04486101534525322,0.019058525583025312
73.5,0.07796698931519794,0.032605461613462984
74.0,0.0829977960074084,0.03462757280002521
74.5,0.06073139917408137,0.025605424782858786
75.0,0.04240331957238151,0.01803578573376081
75.5,0.061908436973165656,0.026087071329600045
76.0,0.0664135165646997,0.02792564103095438
76.5,0.10084398292433307,0.041725772962421685
77.0,0.04445946136092273,0.018891588357575723
77.5,0.04095433133683302,0.017431676596537063
78.0,0.07806125986119088,0.03264343994512212
78.5,0.6249209289300163,0.21083223241342894
79.0,0.14849151088835402,0.060127789441389204
79.5,0.11265715665561832,0.046361365673621015
80.0,0.058562269357707614,0.024716410246811538
80.5,0.054308569489269154,0.022967736506399536
81.0,0.05719067563402071,0.024153324022148866
81.5,0.0429478966350628,0.01826261257888092
82.0,0.06089232762171645,0.025671308601973777
82.5,0.06394479320760671,0.026919093534845166
83.0,0.05342458666078953,0.022603450462034637
83.5,0.04262799180271339,0.01812938040518415
84.0,0.047535652147999465,0.02016881280077261
84.5,0.022053425103587255,0.009473597972133636
85.0,0.06273823836533247,0.02642630720180447
85.5,0.3615540310016438,0.13403488027037744
86.0,0.20227484007607505,0.0800037587518958
86.5,0.11954693822696129,0.04904230656678799
87.0,0.0735476105010881,0.030821309619400543
87.5,0.07640542161516145,0.03197587654212373
88.0,0.08374231676424743,0.034926031546579424
88.5,0.06660680968878879,0.02800435208342613
89.0,0.08206396506101676,0.0342529343860174
89.5,0.09354143796506079,0.03883524456487039
90.0,0.07253455555537242,0.03041129343975293
90.5,0.07469890812201169,0.03128680764053575
91.0,0.11381915959914361,0.046814684227663925
91.5,0.09710024308540723,0.04024631128470464
92.0,0.14229512570667555,0.05777832361834917
92.5,0.3226683480350008,0.1214509608354565
93.0,0.35415651016168487,0.1316688619646637
93.5,0.13264379215393912,0.0540933490291079
94.0,0.08067231513371848,0.033694025772779
94.5,0.09492283241829112,0.03938351220274453
95.0,0.05337795858725931,0.022584226719320952
95.5,0.05158813022860428,0.021845675375261008
96.0,0.09059731981937937,0.037664426058409056
96.5,0.10119785449792468,0.04186535657107474
97.0,0.0765194801078277,0.03202189298606549
97.5,0.04272123077844835,0.01816821627233625
98.0,0.07285271405557575,0.030540104199450288
98.5,0.055513068567200514,0.02346361478387971
99.0,0.043308791719625254,0.018412867095700284
99.5,0.0667658511611938,0.028069104796587495
100.0,0.09444740287740773,0.03919489501406055
100.5,0.040912369993325294,0.017414169635184117
101.0,0.023051718502516555,0.009897589227807093
101.5,0.0581089400312966,0.024530383784995304
102.0,0.05467176092402369,0.02311731783276195
102.5,0.02861017652233888,0.012250816685084974
103.0,0.05635876723503466,0.023811441084888446
103.5,0.051052674190524394,0.02162448152495801
104.0,0.0609403194605977,0.025690954440522624
104.5,0.06437660421208538,0.027095319869148583
105.0,0.05760666109407082,0.024324177454810417
105.5,0.05582936920720854,0.023593738274174714
106.0,0.03677371826658126,0.01568397950214761
106.5,0.04095308513656058,0.017431156671493878
107.0,0.3215145392398567,0.12107194558116524
107.5,0.0688036057447004,0.0288979102815313
108.0,0.029510869205318254,0.012630936103126426
108.5,0.024631537636395404,0.010567719108806727
109.0,0.04251222757343466,0.018081157493782748
109.5,0.05520246203391601,0.023335795850000098
110.0,0.04390438373648902,0.018660721350791998
110.5,0.015989439919023365,0.006889193962929361
111.0,0.054107174036453536,0.022884769060939343
111.5,0.0320722432712221,0.013710098217479422
112.0,0.06347975639328264,0.026729227411886866
112.5,0.03029534225941184,0.01296173647956018
113.0,0.015386030036750629,0.00663118396548626
113.5,0.05507588542612124,0.02328369701437933
114.0,0.34456204795388795,0.1285808485542697
114.5,0.23556419321893274,0.09186531391173713
115.0,0.1378047228526677,0.05606773212519228
115.5,0.09626588430193764,0.03991589911270827
116.0,0.07390425629313717,0.030965563656755207
116.5,0.08871416161428378,0.03691387210818396
117.0,0.09013784520138754,0.03748141686286606
117.5,0.0985634790624693,0.04082515712364188
118.0,0.0803278309118667,0.033555564331030366
118.5,0.06440632907009106,0.027107448246923727
119.0,0.07342404846857402,0.030771320781654395
119.5,0.09106720176806359,0.037851500779197356
120.0,0.18572450252796355,0.07398379448311905
120.5,0.1304950883129628,0.05326867979662752
121.0,0.25492056531624724,0.0986162364651517
121.5,0.26002617004403566,0.10037956526652114
122.0,0.05425485723141737,0.022945610601240618
122.5,0.016226807474797992,0.006990647162367896
123.0,0.012611998420070478,0.005443069028262837
123.5,0.01999648028163809,0.008598673137506013
124.0,0.012112540670893327,0.005228806056067487
124.5,0.041207619518195286,0.01753733759950979
125.0,0.021167021598413386,0.009096780898079155
125.5,0.04143241961284409,0.0176310930629429
126.0,0.04221542683748746,0.017957497290547242
126.5,0.04330652232847429,0.018411922423198817
127.0,0.031453606589107265,0.013449698760489107
127.5,0.05345279603279947,0.022615080160756834
128.0,0.04064117960698426,0.017301007531790615
128.5,0.38042782288557403,0.14001370402708707
129.0,0.06352562844485196,0.02674795983166841
129.5,0.0457989990805009,0.019448221836701193
130.0,0.04783095036840974,0.02029122230022255
130.5,0.05026583750319919,0.021299239211111973
131.0,0.036082430606616596,0.015394309205997199
131.5,0.040823318974919726,0.017377013750188717
132.0,0.03642257241520204,0.015536862986706283
132.5,0.034411752051572216,0.014693445961815696
133.0,0.028419860867403966,0.012170455156578774
133.5,0.027886527825889438,0.011945173940303044
134.0,0.03924762319436925,0.016719039928552712
134.5,0.04472077884528334,0.019000232638131647
135.0,0.05363471521225311,0.02269007134699258
135.5,0.27622224547177887,0.10592631041757507
136.0,0.06519884718707257,0.027430687751353523
136.5,0.048070646892923986,0.020390557954642355
137.0,0.05070603229847185,0.02148122562996381
137.5,0.043097563182179784,0.018324930833110775
138.0,0.049269060437436805,0.020886867106892637
138.5,0.049296141595528815,0.02089807590565874
139.0,0.05338232964409233,0.022586028847330707
139.5,0.04734235621589979,0.020088667459050295
140.0,0.04797523127024231,0.020351018287234977
140.5,0.061900177403098736,0.026083693355070017
141.0,0.049668618090790755,0.02105221330837831
141.5,0.060429789876412066,0.025481919548812987
142.0,0.05096316758839988,0.02158749586324466
142.5,0.20804789781482935,0.0820841539409792
143.0,0.17440689879024215,0.06981859374513388
143.5,0.10123819285865522,0.04188126507157109
144.0,0.05387366055678731,0.02278855033407081
144.5,0.07540550760073093,0.03157225635021417
145.0,0.03941738746757169,0.016789977464771257
145.5,0.04454380265405604,0.01892665671659195
146.0,0.05026390484335511,0.021298440037942658
146.5,0.04147906795607845,0.017650545755177632
147.0,0.0449344567825938,0.019089050303189196
147.5,0.04891301948115176,0.020739476062416363
148.0,0.07209283220970844,0.030232392419131008
148.5,0.02677555529120017,0.011475520762442534
149.0,0.09139983305987019,0.03798388301760299
149.5,0.09433292055690923,0.03914946419619268
150.0,0.19228191766704206,0.07637895742683563
150.5,0.03176317663899996,0.013580023956108528
151.0,0.04278368727248821,0.018194228688316567
151.5,0.021247971950732275,0.009131207095937748
152.0,0.01190322365358671,0.005138979457370918
152.5,0.02507815654749802,0.01075697920961564
153.0,0.01430409672111594,0.006168179581637175
153.5,0.03947557797025972,0.01681429022607586
154.0,0.011270837367456349,0.004867483406948682
154.5,0.03241869838420097,0.013855861555230551
155.0,0.03460044165389112,0.01477265946626589
155.5,0.034610807901361194,0.014777010886716804
156.0,0.012356483884569435,0.00533346875114949
156.5,0.04561534795214897,0.01937194936400182
157.0,0.28620485255332484,0.10931014374243922
157.5,0.04718226165540707,0.020022277039241552
158.0,0.0299379164446393,0.012811046687569862
158.5,0.031017836318441086,0.013266178520832114
159.0,0.040560969718963794,0.01726753196403767
159.5,0.038214034503694615,0.0162868953445199
160.0,0.03644486430883761,0.015546203908586676
160.5,0.026462326105768708,0.011343014237902183
161.0,0.030380163009366478,0.01299748901175927
161.5,0.04153894301800958,0.01767551280670622
162.0,0.011909830449094513,0.0051418149908469876
162.5,0.010124220258558875,0.004374784530714142
163.0,0.016886693910545803,0.007272564573861446
163.5,0.029135955617654856,0.012472751705346735
164.0,0.2329360998968739,0.09094056874389551
164.5,0.10911956982872426,0.04497836825701544
165.0,0.06475250569801329,0.02724867077869567
165.5,0.041378737568330305,0.017608706188708603
166.0,0.06008256939178386,0.025339693599347114
166.5,0.045607371872352136,0.019368636500756625
167.0,0.06829496445838357,0.0286911812975092
167.5,0.044619822082981694,0.018958262492342066
168.0,0.06220863209994071,0.026209826416707823
168.5,0.04363176288019278,0.01854728836003286
169.0,0.04848745843897701,0.02056323998655829
169.5,0.0450418727373943,0.019133692106850196
170.0,0.0717680046102203,0.03010078794865017
170.5,0.10119168263545149,0.04186292248230893
171.0,0.2157390078445538,0.084840351566116
171.5,0.16235245394524675,0.06533783682718679
172.0,0.05666416193840826,0.023936978042930823
172.5,0.026259567841868538,0.011257219083947693
173.0,0.02343325006636827,0.010059522549886015
173.5,0.03191714551838614,0.01364482840678671
174.0,0.01820050548105577,0.007833308304912726
174.5,0.012571027421639618,0.005425496810530371
175.0,0.028542278881224833,0.012222148347156618
175.5,0.014205608811155701,0.006126007975805731
176.0,0.03035947504504181,0.012988769163232617
176.5,0.03825069965980936,0.016302232445813695
177.0,0.023736062045039953,0.010188001979088472
177.5,0.043535199458190024,0.018507102824216973
178.0,0.06867093558190415,0.02884399813560809
178.5,0.2804900507770224,0.1073762084120825
179.0,0.057347266282858606,0.02421764677889317
179.5,0.048360206449459944,0.02051052768146174
180.0,0.0250343284552395,0.010738410181074642
180.5,0.028872057443519634,0.012361372623523869
181.0,0.03213742778176156,0.013737526897462144
181.5,0.030584143350362202,0.013083456087003667
182.0,0.0289008581012403,0.012373529423362685
182.5,0.04306905144312592,0.018313059786134508
183.0,0.03223054701098666,0.013776707090075835
183.5,0.021727811425584602,0.009335215035390908
184.0,0.021824606242707306,0.009376356583433613
184.5,0.029642546418397708,0.012686479985070212
185.0,0.0421545389795189,0.017932124385379854
185.5,0.300502350475299,0.11411114145886558
186.0,0.04930734259382062,0.020902711875994844
186.5,0.02737418393804729,0.01172864848768067
187.0,0.032324281475751955,0.013816142575419233
187.5,0.024441403669248442,0.010487122531372331
188.0,0.010990003032064717,0.004746861180045906
188.5,0.02715284660695535,0.011635074073253211
189.0,0.01674523046981603,0.007212143815254613
189.5,0.024047797169789244,0.010320227697081715
190.0,0.03390177786002899,0.01447928212390083
190.5,0.02544288537583828,0.01091147625302192
191.0,0.03190905967207594,0.013641425369820454
191.5,0.022299959278918802,0.009578343495372411
192.0,0.06425389317352194,0.027045247555479067
192.5,0.25066398393392464,0.0971406434063869
193.0,0.13174539275347374,0.05374873519219302
193.5,0.060361068527529885,0.02545377410250399
194.0,0.05995395427215584,0.0252869993781025
194.5,0.04309737910069107,0.018324854190632976
195.0,0.04898813304733991,0.020770575151414117
195.5,0.05296206133089127,0.022412723653226538
196.0,0.028905958731323827,0.012375682371327901
196.5,0.04216026224393045,0.017934509420645194
197.0,0.04447649937900971,0.01889867284209503
197.5,0.04691191006704671,0.019910140531498494
198.0,0.040421125462652134,0.017209161842474337
198.5,0.06648037474510186,0.027952868019551026
199.0,0.09086192034124256,0.03776978172584659
199.5,0.18106129289293416,0.07227243654192213
200.0,0.22319054143825834,0.08749411414964202
200.5,0.028964936713208315,0.012400575878641634
201.0,0.024196032139634765,0.01038308899183601
201.5,0.018443714660750895,0.007937032268231689
202.0,0.010277612348728336,0.004440729173389661
202.5,0.020979856969092627,0.00901717392484705
203.0,0.015457659278554801,0.006661819690564484
203.5,0.004484856756666322,0.0019433938701403993
204.0,0.007270860843224653,0.0031462705059698867
204.5,0.026097877045956158,0.011188789073610591
205.0,0.02109933657990298,0.009067994026141873
205.5,0.007930687935707451,0.0034306681392385
206.0,0.022837507306463674,0.00980664516341299
206.5,0.04753231118663731,0.020167427679994417
207.0,0.36542761845457755,0.13526868306312767
207.5,0.0632029237577248,0.02661616222559015
208.0,0.037786822614419756,0.01610815190315923
208.5,0.03966541651103909,0.016893597816240204
209.0,0.03578859966570406,0.015271126676542707
209.5,0.03344016628643322,0.014285337079545986
210.0,0.045502745751724416,0.01932517772112891
210.5,0.02352394068624356,0.010098005460985372
211.0,0.016518174400935705,0.007115147825486558
211.5,0.02932036477661808,0.012550565239275903
212.0,0.02475666006795251,0.010620749551468522
212.5,0.014837527295033638,0.0063965184588508145
213.0,0.009895490542205768,0.004276432961615176
213.5,0.03133662189534552,0.013400439454990344
214.0,0.31338390914975917,0.11839169124937028
214.5,0.0912402494916612,0.03792037619964139
215.0,0.04840930752453159,0.020530867853160058
215.5,0.0560023305041999,0.023664876648548407
