Frequency (Hz),Power,Log Power
0.0,0.0012029028950567566,0.0005221001346244903
0.1,0.0012029055187205717,0.0005221012726982737
0.2,0.0012029133288022089,0.0005221046604984392
0.30000000000000004,0.0012029263892660226,0.0005221103257709391
0.4,0.0012029446875276757,0.0005221182630569251
0.5,0.001202968138396723,0.0005221284354030493
0.6000000000000001,0.0012029968515404627,0.0005221408903798677
0.7000000000000001,0.001203030839610277,0.0005221556334748382
0.8,0.001203070024669604,0.0005221726308811801
0.9,0.0012031145345593654,0.0005221919380523904
1.0,0.0012031642501181895,0.0005222135032992356
1.1,0.0012032192924756337,0.0005222373791640547
1.2000000000000002,0.001203279596116236,0.0005222635372277944
1.3,0.0012033452312646732,0.0005222920079514002
1.4000000000000001,0.0012034161922576678,0.0005223227888778562
1.5,0.001203492505925239,0.000522355891644923
1.6,0.0012035741667245383,0.0005223913138476162
1.7000000000000002,0.001203661255578126,0.0005224290905874534
1.8,0.001203753711273436,0.0005224691953113959
1.9000000000000001,0.0012038516147493258,0.0005225116631278118
2.0,0.0012039549672593994,0.0005225564945799089
2.1,0.0012040638057624691,0.0005226037056985933
2.2,0.0012041781792178363,0.0005226533177202613
2.3000000000000003,0.0012042980665045856,0.0005227053214824406
2.4000000000000004,0.0012044235105512376,0.0005227597356054765
2.5,0.0012045544898317416,0.0005228165507510376
2.6,0.001204691230544615,0.0005228758650366932
2.7,0.0012048336353874492,0.0005229376362544778
2.8000000000000003,0.0012049815510480214,0.0005230017979008124
2.9000000000000004,0.0012051354470623363,0.0005230685536460649
3.0,0.0012052949665279302,0.0005231377486748462
3.1,0.001205460448436812,0.0005232095300310648
3.2,0.0012056316399259104,0.0005232837880286443
3.3000000000000003,0.0012058086936980893,0.0005233605889045938
3.4000000000000004,0.0012059914120103627,0.0005234398468821509
3.5,0.0012061802832722085,0.0005235217738179974
3.6,0.001206376272755611,0.0005236067884179409
3.7,0.0012065772591172586,0.000523693970502542
3.8000000000000003,0.0012067847562055437,0.0005237839767342349
3.9000000000000004,0.0012069971090977098,0.0005238760892537514
4.0,0.0012072174094952582,0.0005239716491496939
4.1000000000000005,0.0012074440570195586,0.000524069962222442
4.2,0.0012076755739553117,0.0005241703874806401
4.3,0.0012079127935676062,0.0005242732863685291
4.4,0.001208158770694337,0.0005243799839827791
4.5,0.0012084094544393147,0.0005244887231621541
4.6000000000000005,0.0012086685310827656,0.0005246011029035045
4.7,0.0012089296501874493,0.000524714368574295
4.800000000000001,0.0012092033928626461,0.0005248331099413816
4.9,0.001209483351578352,0.0005249545476069632
5.0,0.0012097712911057325,0.000525079447072999
5.1000000000000005,0.0012100602491849513,0.0005252047883199638
5.2,0.001210360584021725,0.0005253350644208055
5.300000000000001,0.0012106631258930816,0.000525466297826477
5.4,0.0012109793252441802,0.0005256034553865764
5.5,0.0012112934879251872,0.0005257397294588562
5.6000000000000005,0.0012116295185155398,0.000525885489107842
5.7,0.0012119581943342617,0.0005260280584375406
5.800000000000001,0.0012122908729265034,0.000526172363998083
5.9,0.001212653075912202,0.0005263294762619395
6.0,0.001213011356820143,0.0005264848871957943
6.1000000000000005,0.0012133713666863024,0.0005266410480411013
6.2,0.0012137394012753176,0.0005268006896982726
6.300000000000001,0.0012141254836599866,0.00052696815985007
6.4,0.0012144889479086226,0.0005271258189211012
6.5,0.0012149296146985425,0.000527316965888338
6.6000000000000005,0.0012153003467067296,0.0005274777773493504
6.7,0.0012157227000685407,0.0005276609803983934
6.800000000000001,0.001216149824790799,0.0005278462530286448
6.9,0.0012165758392253504,0.0005280310439738766
7.0,0.0012169895253643713,0.0005282104872378812
7.1000000000000005,0.001217449344253221,0.0005284099412646194
7.2,0.0012179048885706965,0.0005286075410352971
7.300000000000001,0.0012183858498158633,0.0005288161657148456
7.4,0.0012188410452599475,0.0005290136139713601
7.5,0.0012193776443369614,0.0005292463722317037
7.6000000000000005,0.0012197971388325372,0.0005294283344574887
7.7,0.0012203265268790594,0.000529657964601899
7.800000000000001,0.0012207916924009345,0.0005298597371459061
7.9,0.0012212697386882224,0.0005300670968180122
8.0,0.001221844920215593,0.0005303165902109268
8.1,0.0012223571732325434,0.0005305387873222758
8.200000000000001,0.0012228734244757533,0.0005307627186066105
8.3,0.0012235018540651557,0.000531035308680776
8.4,0.0012239147977696288,0.000531214428662392
8.5,0.0012246990221226278,0.000531554596501547
8.6,0.0012252366805896517,0.0005317878129243286
8.700000000000001,0.001225694051833367,0.0005319862036107627
8.8,0.001226760132620504,0.0005324486295746636
8.9,0.001226576885556861,0.000532369143888642
9.0,0.001227507312156096,0.0005327727278120789
9.1,0.001228132892692317,0.0005330440808142926
9.200000000000001,0.0012284664463847903,0.0005331887636284868
9.3,0.0012296787251173562,0.0005337146032974229
9.4,0.0012302152875056066,0.0005339473431242044
9.5,0.0012308921651199578,0.0005342409460428977
9.600000000000001,0.0012315179905986904,0.0005345124043739911
9.700000000000001,0.0012320307723064573,0.0005347348286635514
9.8,0.0012329291671607054,0.0005351245163091211
9.9,0.0012336622846856092,0.0005354425130207904
10.0,0.0012342339359107581,0.000535690472024943
10.100000000000001,0.0012351615267817933,0.0005360928228400447
10.200000000000001,0.0012358703985152905,0.0005364003020268526
10.3,0.0012367510712010983,0.0005367823010451132
10.4,0.001237538180565896,0.0005371237159193221
10.5,0.0012386297368725194,0.0005375971866035392
10.600000000000001,0.0012397896020974863,0.0005381002862245825
10.700000000000001,0.001239036183278413,0.0005377734856297513
10.8,0.0012398749742969547,0.0005381373169878113
10.9,0.0012411542519958384,0.0005386922118780387
11.0,0.0012423008882686602,0.0005391895720981768
11.100000000000001,0.0012427146620020355,0.0005393690487461647
11.200000000000001,0.0012440372607060433,0.0005399427327602206
11.3,0.001244271118121576,0.0005400441695422978
11.4,0.0012457102261460467,0.0005406683890687243
11.5,0.001245057404428832,0.000540385224847447
11.600000000000001,0.0012468861784143007,0.0005411784629456419
11.700000000000001,0.0012481100612166856,0.0005417093262422722
11.8,0.001252395927372058,0.0005435683300386378
11.9,0.0012473557223023608,0.0005413821292686704
12.0,0.0012472368851430278,0.0005413305832393461
12.100000000000001,0.0012501531036306862,0.0005425955013396275
12.200000000000001,0.001257625648689663,0.0005458367222920003
12.3,0.0012537338452340073,0.0005441486532007907
12.4,0.0012562169221798799,0.0005452256881641427
12.5,0.0012558161754738517,0.0005450518644065839
12.600000000000001,0.0012610484383087717,0.0005473213512880843
12.700000000000001,0.0012568988321759907,0.0005455214662502872
12.8,0.001258227069298618,0.0005460975877942404
12.9,0.0012602904152932844,0.0005469925605716185
13.0,0.00126234413612627,0.00054788335662039
13.100000000000001,0.0012648024900098873,0.000548949658795619
13.200000000000001,0.001259686786302173,0.0005467307377255058
13.3,0.0012684612334575962,0.0005505366207890607
13.4,0.0012643248282465979,0.0005487424749248155
13.5,0.0012653941904371402,0.0005492063063416636
13.600000000000001,0.0012691456460515091,0.0005508334807449209
13.700000000000001,0.0012703356311161036,0.0005513496293172536
13.8,0.0012665158133912233,0.000549692805115932
13.9,0.0012701296264759306,0.0005512602761380766
14.0,0.0012705614912116325,0.0005514475946505013
14.100000000000001,0.0012769017946031235,0.0005541976505937206
14.200000000000001,0.0012736880356619192,0.0005528037105041018
14.3,0.0012810203446321736,0.0005559840294357743
14.4,0.0012788127178998273,0.0005550264948921217
14.5,0.0012789587763571558,0.0005550898462550198
14.600000000000001,0.0012852551586967106,0.0005578208289491872
14.700000000000001,0.0012812824963108751,0.0005560977347895274
14.8,0.0012864475590169736,0.0005583380168017928
14.9,0.001284695567129552,0.000557578113303012
15.0,0.001283189469369213,0.0005569248620935165
15.100000000000001,0.001284858393834493,0.0005576487373064096
15.200000000000001,0.0012891105420217337,0.0005594930482008347
15.3,0.0012988441718544304,0.0005637148470140758
15.4,0.0012798973604433996,0.0005554969472879833
15.5,0.0012986499171203044,0.0005636305926800503
15.600000000000001,0.0012955099443629334,0.000562268686339583
15.700000000000001,0.0013021404166309448,0.0005651445286415577
15.8,0.0012984385108312849,0.0005635388991633223
15.9,0.0012979865013411072,0.0005633428484515074
16.0,0.0013137065716247274,0.0005701610846607633
16.1,0.0012911198373305867,0.0005603645497286996
16.2,0.0013132703510123367,0.0005699718849675635
16.3,0.0013151816956638066,0.0005708008819133399
16.400000000000002,0.001316051916203155,0.0005711783173312639
16.5,0.001316317958563025,0.0005712937061870557
16.6,0.0013092042527380616,0.0005682083133849988
16.7,0.0013073778750559955,0.0005674161639978082
16.8,0.001308483273641466,0.0005678956054276172
16.900000000000002,0.0013181973075716393,0.000572108823371648
17.0,0.0013080113879991196,0.0005676909358554815
17.1,0.0013061412851532804,0.0005668798206984339
17.2,0.001318613752683686,0.0005722894450532561
17.3,0.0013180046275108532,0.0005720252536378187
17.400000000000002,0.0013021475081829374,0.0005651476044583085
17.5,0.0013350789842645925,0.000579430728885712
17.6,0.001349503659616172,0.0005856868882059591
17.7,0.0012997237868500795,0.0005640963632549811
17.8,0.0013339400472157342,0.000578936754024295
17.900000000000002,0.001320962358773628,0.0005733080873263292
18.0,0.0013589363233071853,0.000589777901864072
18.1,0.0013468888301832402,0.0005845528111704983
18.2,0.0012989494141550447,0.0005637604938739519
18.3,0.0013353034794141227,0.000579528095886823
18.400000000000002,0.0013489114108546404,0.0005854300243994705
18.5,0.0013225812463467984,0.0005740102331896446
18.6,0.0013382452896944128,0.0005808040022593937
18.7,0.0013333160836575565,0.0005786661310045339
18.8,0.0009988308428092443,0.0004335702277572633
18.900000000000002,0.001285220140092954,0.0005578056400840965
19.0,0.0013508370416754492,0.0005862651878734779
19.1,0.001336903117006771,0.0005802218826954947
19.200000000000003,0.00138890258306882,0.0006027742272186545
19.3,0.0013187467615129135,0.000572347133980609
19.400000000000002,0.001252881356612612,0.0005437788855292334
19.5,0.0013414603587704383,0.0005821984207025846
19.6,0.0012277049127018401,0.0005328584394186071
19.700000000000003,0.0012247599518173684,0.000531581025563351
19.8,0.0010922898573447531,0.0004741165684374256
19.900000000000002,0.002053977522095544,0.0008911162503926828
20.0,0.001990478415539158,0.0008635945938637807
20.1,0.0014689269793191537,0.0006374787910819753
20.200000000000003,0.001793366294484374,0.000778151538723472
20.3,0.0012800123841884587,0.0005555468376084507
20.400000000000002,0.0014356695120360152,0.0006230562024577207
20.5,0.0012979846872523402,0.0005633420616240083
20.6,0.0012528661417519468,0.0005437722860674787
20.700000000000003,0.00039357374962552423,0.00017089328033526033
20.8,0.0015990183407452617,0.0006938902179854931
20.900000000000002,0.0016549607858166678,0.0007181462488814032
21.0,0.0015414327723693242,0.0006689203317491641
21.1,0.001334219665159711,0.000579058028764285
21.200000000000003,0.0017904863453872995,0.0007769030299581118
21.3,0.0021673825533549598,0.0009402636952106071
21.400000000000002,0.002262129257591709,0.0009813207347489938
21.5,0.000902898328308333,0.0003919468442438382
21.6,0.0027295562479873097,0.0011838163039492602
21.700000000000003,0.001158030862154844,0.0005026354357724827
21.8,0.003053232831429816,0.001323981984995077
21.900000000000002,0.001833540947273501,0.0007955675855512438
22.0,0.001069755687307772,0.0004643406707038147
22.1,0.0015954178089660758,0.0006923290204747637
22.200000000000003,0.002183377327101205,0.0009471950588386002
22.3,0.00025608671334525823,0.00011120280832136275
22.400000000000002,0.0032384468082807287,0.0014041671436760942
22.5,0.0017086300074531829,0.0007414153618047164
22.6,0.0017885414122962285,0.0007760598651042166
22.700000000000003,0.001180801851832671,0.0005125131997187437
22.8,0.0028218511192028275,0.0012237885062652736
22.900000000000002,0.0018991309490128338,0.0008239998971396778
23.0,0.0006798249898317159,0.0002951439299973821
23.1,0.0020189039095939504,0.0008759149306077896
23.200000000000003,0.0015747741776689136,0.0006833777938690209
23.3,0.0016360843885737113,0.0007099618014134526
23.400000000000002,0.0017935729289420956,0.0007782411182699602
23.5,0.0014725883733590355,0.0006390665790582487
23.6,0.002107256257753985,0.0009142068685671917
23.700000000000003,0.0014004514658856886,0.0006077828578760641
23.8,0.001760213211532746,0.0007637788749398359
23.900000000000002,0.0017418321134102213,0.0007558100191008705
24.0,0.0014197220528818699,0.0006161401829183939
24.1,0.00139037956520758,0.0006034147822697061
24.200000000000003,0.0010751797382719604,0.0004666937824707197
24.3,0.0028067698968903794,0.00121725719577022
24.400000000000002,0.001401295401818745,0.0006081488618696341
24.5,0.0014248878517890335,0.0006183804745006502
24.6,0.001055069721196077,0.00045796940557300993
24.700000000000003,0.0014162636918975474,0.0006146403625610778
24.8,0.001965476769224794,0.0008527579514662332
24.900000000000002,0.0043213742702412706,0.0018727055769617875
25.0,0.0025761901754078977,0.0011173864946486239
25.1,0.0020734014364295244,0.0008995345763942966
25.200000000000003,0.002422441145717032,0.0010507806084593986
25.3,0.0020333197950605413,0.0008821630108084813
25.400000000000002,0.0012772690272779682,0.0005543569342991235
25.5,0.0021171725029050298,0.0009185043618903135
25.6,0.0017814131208745186,0.0007729696035209921
25.700000000000003,0.0022027653215053755,0.0009555967323544932
25.8,0.002311084557615983,0.0010025332467372284
25.900000000000002,0.002089551035620647,0.0009065336897201066
26.0,0.0016000196996272906,0.0006943244081269764
26.1,0.002872687188105184,0.0012458036474435933
26.200000000000003,0.0022058068828722396,0.0009569147603617294
26.3,0.0020083326232508904,0.0008713331053294525
26.400000000000002,0.0024112511934295177,0.0010459325908409641
26.5,0.0023696849563700803,0.0010279236532403856
26.6,0.001730613522060705,0.0007509462912982166
26.700000000000003,0.0016362583161092493,0.0007100372137947868
26.8,0.0024996270870527326,0.0010842197420300513
26.900000000000002,0.0021136070501173243,0.0009169591740936042
27.0,0.002437511004945895,0.0010573095001151893
27.1,0.002351948043132519,0.0010202387523359099
27.200000000000003,0.0011675187778136939,0.0005067511994815367
27.3,0.0019077017893127089,0.0008277150942202946
27.400000000000002,0.001965594203265556,0.0008528088523745612
27.5,0.0024181262928287066,0.0010489112161196185
27.6,0.0027798837104352826,0.0012056131988414296
27.700000000000003,0.0030835644396824684,0.0013371145391761097
27.8,0.004949077289910391,0.0021440557741172683
27.900000000000002,0.0019542241367673653,0.000847880554252195
28.0,0.0008441795773325401,0.00036646787157861005
28.1,0.0028020216987851886,0.0012152008463518372
28.200000000000003,0.004850411126732867,0.002101414535028576
28.3,0.0012538765907028472,0.0005442105691396707
28.400000000000002,0.00728431078024998,0.003152069536460058
28.5,0.00556187755152053,0.002408800196152671
28.6,0.0011569942111414977,0.0005021857444810748
28.700000000000003,0.0021848250781628165,0.0009478224388743757
28.8,0.0008046609010418782,0.0003493192661885629
28.900000000000002,0.008613101111825757,0.003724605012505746
29.0,0.012531407212388298,0.005408503261999135
29.1,0.005128835892466921,0.0022217325336707687
29.200000000000003,0.006528526170506573,0.0028260878018053453
29.3,0.009059965163525327,0.003916975717384505
29.400000000000002,0.002849423714766134,0.0012357292726868172
29.5,0.0012631699826335192,0.0005482415648713596
29.6,0.002945119166769068,0.0012771692167002165
29.700000000000003,0.0041580091948570375,0.0018020565560998856
29.8,0.0035687650121525058,0.0015471359088512454
29.900000000000002,0.0042634822088045265,0.0018476708339646758
30.0,0.0022660273891162348,0.0009830098474762905
30.1,0.0017440129807137664,0.0007567555098195117
30.200000000000003,0.004875428678130175,0.002112226939693818
30.3,0.0020225989540471052,0.0008775164317883468
30.400000000000002,0.002444993576669059,0.0010605512258546116
30.5,0.0013373535540022873,0.0005804172437742429
30.6,0.0020777389396541687,0.000901414428345407
30.700000000000003,0.0008613376140738492,0.0003739131632193374
30.8,0.0012501825655036156,0.0005426082804923867
30.900000000000002,0.0016910583055005511,0.0007337970186050275
31.0,0.0018089031933871992,0.0007848869967155622
31.1,0.002196067124493526,0.0009526941263922374
31.200000000000003,0.002151084054915508,0.0009332005981492563
31.3,0.0025509360549820686,0.0011064468140633624
31.400000000000002,0.0019833614692647463,0.0008605098724633003
31.5,0.002492161218516121,0.0010809854290248387
31.6,0.0035171338445030066,0.0015247919411893532
31.700000000000003,0.002115865385659269,0.0009179378870380293
31.8,0.0022056380209082307,0.0009568415859450289
31.900000000000002,0.002018370007818996,0.0008756835271326304
32.0,0.0019281145778205773,0.0008365632856110878
32.1,0.0006995495682730275,0.0003037043015932598
32.2,0.0014938220296079568,0.0006482745814410675
32.300000000000004,0.002412923895091898,0.0010466572879099946
32.4,0.001592626761919306,0.0006911188132409005
32.5,0.0008791493600469383,0.0003816419802560063
32.6,0.0005622997363331114,0.00024413504056138713
32.7,0.002409264713310989,0.0010450719478586295
32.800000000000004,0.00199603498178483,0.0008660029793920763
32.9,0.0010633053131773355,0.0004615422933675478
33.0,0.004050544926416079,0.001755576185588153
33.1,0.0017651845021116543,0.0007659340800286783
33.2,0.0004264214245333494,0.00018515299784260456
33.300000000000004,0.0021732788551625305,0.0009428188809511683
33.4,0.005939419780033848,0.0025718271936213542
33.5,0.0042960724012743885,0.0018617642580033731
33.6,0.0035241372471606883,0.0015278228097345638
33.7,0.002396560314549134,0.0010395677237493614
33.800000000000004,0.0055507392668933675,0.0024039896295926498
33.9,0.0032373824631220394,0.0014037063963074897
34.0,0.0015139531590912384,0.0006570042913879921
34.1,0.0050511640804541446,0.0021881709228958857
34.2,0.003680565791531075,0.0015955150123952578
34.300000000000004,0.0006765761707267314,0.0002937339420420918
34.4,0.0005544117648891071,0.0002407112497830908
34.5,0.005431367270401353,0.0023524301460322275
34.6,0.004780279018440107,0.00207110251023963
34.7,0.0020393269139227957,0.000884766567698743
34.800000000000004,0.005688643861696125,0.0024635461449912283
34.9,0.0032545001438991587,0.0014111164579868605
35.0,0.00030776682437151393,0.0001336408694791904
35.1,0.004810125047228789,0.0020840026172309458
35.2,0.0012907732954326673,0.0005602142425331789
35.300000000000004,0.0053466154603,0.0023158201932713604
35.4,0.007276226706371383,0.003148584043111478
35.5,0.0053852758720031105,0.0023325205833584725
35.6,0.005370063610527495,0.0023259493202250395
35.7,0.0033849367168269466,0.001467576909127407
35.800000000000004,0.002534108881726816,0.001099157399073802
35.9,0.005151671845684084,0.0022315993442313027
36.0,0.0032991510669488086,0.0014304447719683286
36.1,0.007698025120559165,0.0033304074349160715
36.2,0.003176935594540716,0.0013775385791773755
36.300000000000004,0.004274425700865321,0.0018524033293744698
36.4,0.008534868783172942,0.0036909179759923574
36.5,0.02215504540520845,0.009516776676181126
36.6,0.023185924040853536,0.009954556926585015
36.7,0.0076199462972587634,0.0032967559688836887
36.800000000000004,0.0069455508434100475,0.003005987328615035
36.9,0.01051373506267806,0.0045422208907987555
37.0,0.007994398171107793,0.0034581185677042803
37.1,0.007261358579600935,0.0031421734946462474
37.2,0.0012321967264950684,0.0005348068129590747
37.300000000000004,0.003956233580618152,0.0017147806090697848
37.4,0.0038227577339447253,0.0016570373773556867
37.5,0.0017802883661472025,0.0007724819971037542
