Frequency (Hz),Power,Log Power
0.0,0.011041292787559942,0.004768893339331123
0.1,0.011041310234010254,0.00476890083348302
0.2,0.011041363949665785,0.004768923907131852
0.30000000000000004,0.011041447496096249,0.004768959794637069
0.4,0.01104156579985553,0.004769010612204385
0.5,0.011041724587784352,0.004769078819801571
0.6000000000000001,0.01104192231062206,0.004769163751933308
0.7000000000000001,0.011042144934078084,0.004769259380141945
0.8,0.01104240993172951,0.004769373210216394
0.9,0.01104270851179506,0.004769501465623347
1.0,0.011043043903420572,0.004769645533432631
1.1,0.011043413072382071,0.004769804110275153
1.2000000000000002,0.011043815252455512,0.0047699768670031424
1.3,0.011044254807173302,0.0047701656779567635
1.4000000000000001,0.011044728446346064,0.004770369129813582
1.5,0.011045243091484677,0.0047705901956880325
1.6,0.011045786550030006,0.004770823638242197
1.7000000000000002,0.011046367146042362,0.00477107303305235
1.8,0.011046984657439559,0.004771338284695698
1.9000000000000001,0.011047637229178816,0.004771618596311546
2.0,0.011048321925581105,0.004771912706853557
2.1,0.011049051019974117,0.004772225888281849
2.2,0.01104981006056994,0.004772551932817751
2.3000000000000003,0.011050608650890989,0.004772894965603358
2.4000000000000004,0.011051445831363946,0.004773254574416327
2.5,0.011052311069138267,0.004773626234861186
2.6,0.011053216199710298,0.004774015030804366
2.7,0.011054158864308541,0.004774419948998439
2.8000000000000003,0.011055137950627082,0.004774840511612124
2.9000000000000004,0.011056156203956568,0.004775277897826651
3.0,0.011057203971153628,0.004775727961132637
3.1,0.011058300113935044,0.004776198803436543
3.2,0.011059425742445502,0.004776682310647314
3.3000000000000003,0.01106058713952973,0.004777181181477718
3.4000000000000004,0.011061792407961846,0.004777698896364412
3.5,0.011063027315989111,0.004778229342098154
3.6,0.01106430608046183,0.004778778625365335
3.7,0.011065619742766052,0.004779342897999396
3.8000000000000003,0.01106698027588798,0.004779927302827546
3.9000000000000004,0.011068368962354191,0.004780523799861851
4.0,0.011069801211250929,0.004781139007864625
4.1000000000000005,0.011071268941123296,0.004781769455456908
4.2,0.01107277367812847,0.004782415798115305
4.3,0.011074321765610068,0.004783080760473632
4.4,0.011075909106181205,0.004783762582467322
4.5,0.01107753411624641,0.004784460583805162
4.6000000000000005,0.011079198769177909,0.004785175612042764
4.7,0.011080904603080333,0.004785908327765616
4.800000000000001,0.01108264391411901,0.004786655421824254
4.9,0.011084435057059638,0.004787424778128693
5.0,0.011086255780642474,0.004788206838919762
5.1000000000000005,0.011088123625615093,0.004789009138437501
5.2,0.011090035114143275,0.0047898301827321394
5.300000000000001,0.011091982705888931,0.0047906667328949685
5.4,0.011093967443683796,0.004791519236763201
5.5,0.011096013473413355,0.0047923980655870824
5.6000000000000005,0.011098066795989193,0.0047932800251111575
5.7,0.01110019134238505,0.004794192575374301
5.800000000000001,0.011102353825906889,0.004795121418692169
5.9,0.011104546176416803,0.004796063088635835
6.0,0.011106783893414593,0.004797024242526933
6.1000000000000005,0.011109078746245615,0.004798009935438993
6.2,0.011111437300946173,0.004799022987461395
6.300000000000001,0.01111380414489973,0.004800039597527832
6.4,0.011116218779208474,0.004801076732121034
6.5,0.01111864729471193,0.00480211982647186
6.6000000000000005,0.01112113481730919,0.00480318826291263
6.7,0.011123700710817771,0.0048042903583388015
6.800000000000001,0.011126320658565152,0.004805415668105205
6.9,0.01112895916426621,0.004806548945864808
7.0,0.011131649989366426,0.004807704692544972
7.1000000000000005,0.011134388067674673,0.004808880731975927
7.2,0.011137192301971527,0.004810085182943809
7.300000000000001,0.011139983035776518,0.004811283831978399
7.4,0.011142861460686836,0.0048125201417839
7.5,0.011145802523622442,0.004813783351558672
7.6000000000000005,0.011148782585161015,0.004815063307794028
7.7,0.011151869707959911,0.004816389243574173
7.800000000000001,0.011154888927589753,0.004817686010663744
7.9,0.01115804023812689,0.004819039507204588
8.0,0.01116117531416399,0.0048203860267973814
8.1,0.011164400228153383,0.0048217711275617215
8.200000000000001,0.011167695513788174,0.004823186448389104
8.3,0.011171031480176074,0.004824619236848028
8.4,0.011174371935821686,0.00482605394869448
8.5,0.0111779687315572,0.004827598752247292
8.6,0.011181269667546975,0.004829016480866721
8.700000000000001,0.011184955823626327,0.004830599653315392
8.8,0.011188987284257204,0.00483233112450248
8.9,0.011191294204660574,0.004833321920160987
9.0,0.01119544588040722,0.004835105011230294
9.1,0.011199265559795722,0.0048367455076888865
9.200000000000001,0.011202916445615354,0.004838313503985219
9.3,0.011206700428293642,0.004839938657251004
9.4,0.011211026503592498,0.004841796622206101
9.5,0.01121440103141177,0.004843245910561504
9.600000000000001,0.011218988971025787,0.004845216325871613
9.700000000000001,0.011222783201025998,0.0048468458542713175
9.8,0.011226950123362238,0.004848635437811772
9.9,0.011231222704972442,0.004850470391574238
10.0,0.011235108222516128,0.004852139105463582
10.100000000000001,0.011240015074564668,0.0048542464428974206
10.200000000000001,0.01124339010765449,0.004855695906703578
10.3,0.011249142793291691,0.004858166481588495
10.4,0.011252607057673272,0.004859654253754711
10.5,0.011258089342126801,0.004862008679756642
10.600000000000001,0.011262449213707358,0.004863881064370979
10.700000000000001,0.011266392165383752,0.0048655743921697065
10.8,0.0112728229826459,0.004868336136842165
10.9,0.011275658649057854,0.004869553921519659
11.0,0.011282470461614694,0.004872479259053998
11.100000000000001,0.011285909081007803,0.004873955969006406
11.200000000000001,0.011290983317319574,0.004876135083025135
11.3,0.01129684731916391,0.004878653345623468
11.4,0.011300442536045965,0.004880197284064325
11.5,0.011305385723030777,0.0048823200890128204
11.600000000000001,0.011314033114941141,0.00488603360481767
11.700000000000001,0.011318242084641682,0.0048878410834561365
11.8,0.011321150149932933,0.004889089903897239
11.9,0.011327811660309932,0.0048919505655864864
12.0,0.01133311198989645,0.004894226680050166
12.100000000000001,0.011340067887225042,0.004897213724973243
12.200000000000001,0.011343691472582204,0.00489876977951515
12.3,0.011350663898024915,0.004901763890698836
12.4,0.011356460415393106,0.004904253025657592
12.5,0.011365251441012829,0.004908028032268282
12.600000000000001,0.011369571809821113,0.004909883255515195
12.700000000000001,0.011374063437314777,0.004911812011093805
12.8,0.011378897723923878,0.004913887898796012
12.9,0.011384067775732087,0.0049161079562221825
13.0,0.011392054977113429,0.0049195376956250704
13.100000000000001,0.011399947645995634,0.004922926815750735
13.200000000000001,0.011405364558298938,0.004925252828153534
13.3,0.01141474577719649,0.004929281077210301
13.4,0.01142632217329628,0.004934251873014426
13.5,0.011430829974150158,0.00493618746499066
13.600000000000001,0.011433361703243832,0.004937274553268354
13.700000000000001,0.011443250099048454,0.004941520462987022
13.8,0.011453635873166963,0.0049459798938371775
13.9,0.0114515049635365,0.004945064930228365
14.0,0.011468288154097703,0.004952271194237914
14.100000000000001,0.011466180638016668,0.004951366288400761
14.200000000000001,0.011469744162064435,0.004952896360422362
14.3,0.01148948721229457,0.004961373345660837
14.4,0.011479654852501896,0.004957151689963436
14.5,0.011500686116789682,0.004966181695686206
14.600000000000001,0.011505107203717144,0.004968079914329914
14.700000000000001,0.011511794228726821,0.004970951010522957
14.8,0.011535854534749007,0.004981281225083374
14.9,0.011531553608785878,0.0049794346544695086
15.0,0.011545558704794318,0.004985447609564573
15.100000000000001,0.011532089072375136,0.004979664552211886
15.200000000000001,0.011558233768905269,0.004990889456316785
15.3,0.011548427956480471,0.004986679485278354
15.4,0.011576020453207556,0.004998525784778846
15.5,0.011570934901141089,0.0049963424266257425
15.600000000000001,0.011602463203937631,0.005009878160085103
15.700000000000001,0.011601341910384078,0.0050093967734826505
15.8,0.011625686347318163,0.005019848052037525
15.9,0.011600693305520543,0.00500911831833265
16.0,0.011635095878081893,0.005023887578058083
16.1,0.011647554935950166,0.0050292362129409065
16.2,0.011643430123322106,0.0050274654509728945
16.3,0.01167398918239272,0.005040584134774931
16.400000000000002,0.01162194628167034,0.005018242425670664
16.5,0.011663201161588492,0.005035952995755356
16.6,0.011691764358464017,0.005048214649296884
16.7,0.011685128613911456,0.00504536607743418
16.8,0.011724279064987207,0.005062172191712194
16.900000000000002,0.011685004436208764,0.00504531277063656
17.0,0.01172597337535758,0.005062899493649693
17.1,0.011714144787652495,0.005057821912827826
17.2,0.011742937694883635,0.005070181553007524
17.3,0.011719155274276789,0.005059972739042367
17.400000000000002,0.011764427169961967,0.005079405893484758
17.5,0.011808184332541672,0.005098188015902382
17.6,0.011754704994875798,0.0050752326816530455
17.7,0.011807241837934567,0.005097783472428501
17.8,0.011855481818357504,0.005118488856842565
17.900000000000002,0.011813364128535045,0.005100411313849533
18.0,0.011948586450743579,0.005158448088813053
18.1,0.011982355494322802,0.005172940390880305
18.2,0.011877941101910537,0.005128128409962031
18.3,0.012125180768744213,0.0052342298506043335
18.400000000000002,0.011679048294061904,0.005042755920163395
18.5,0.011501354987372953,0.004966468879581783
18.6,0.01185935707589908,0.005120152137591311
18.7,0.011800938477048826,0.005095077894464603
18.8,0.013259500049525655,0.0057206842614932535
18.900000000000002,0.011901828132635961,0.005138380519199698
19.0,0.011986725463697244,0.0051748157689216305
19.1,0.011950289606164784,0.00515917902553126
19.200000000000003,0.011970408647759587,0.00516781334480443
19.3,0.011832152663684049,0.005108475727375315
19.400000000000002,0.012056575356710866,0.005204790842179296
19.5,0.012192511753069783,0.005263120054026952
19.6,0.01206265736293325,0.005207400749440304
19.700000000000003,0.011984907261005425,0.005174035485855172
19.8,0.011627730113467063,0.005020725447180994
19.900000000000002,0.013454251797203184,0.0058041490423885326
20.0,0.013187003006238296,0.005689610097117325
20.1,0.011837453407411025,0.005110750885082627
20.200000000000003,0.012117297026506655,0.005230846989323573
20.3,0.012327835552391635,0.005321178625264809
20.400000000000002,0.01263472387745422,0.005452815535325129
20.5,0.012460606733919662,0.0053781344932180225
20.6,0.012263818146407751,0.005293713920347048
20.700000000000003,0.013115805752499978,0.005659090893073171
20.8,0.011455174798545494,0.004946640671818272
20.900000000000002,0.011902030542719353,0.005138467390841837
21.0,0.011610146815220306,0.005013176824758003
21.1,0.012470589956496941,0.005382416770545811
21.200000000000003,0.012016783153222334,0.005187714846067406
21.3,0.012061057119816398,0.005206714055489333
21.400000000000002,0.011918337857246962,0.005145466210326749
21.5,0.011810898748623051,0.005099353112570553
21.6,0.0125694841612654,0.005424834901432406
21.700000000000003,0.012407650331049278,0.00535541827602902
21.8,0.012445440994365163,0.005371629107933537
21.900000000000002,0.012800772667902997,0.005524023997607074
22.0,0.012116153616467413,0.005230356357503936
22.1,0.012519291595899219,0.005403306606538348
22.200000000000003,0.012336559775837124,0.00532492135132846
22.3,0.011864341733615027,0.0051222915693146034
22.400000000000002,0.012370169730701952,0.005339339852263351
22.5,0.01234887174680634,0.005330203180268487
22.6,0.012237432863595034,0.00528239361839721
22.700000000000003,0.012696488255264603,0.005479303971694352
22.8,0.01256631644233741,0.005423476253928109
22.900000000000002,0.012508243941355282,0.005398567969337405
23.0,0.01289825717639398,0.005565823873617954
23.1,0.01184404076324359,0.005113578259149818
23.200000000000003,0.012269565995815647,0.005296179929848556
23.3,0.013082480376695994,0.005644804999220211
23.400000000000002,0.012598929506326255,0.005437463926053052
23.5,0.012142782858381706,0.0052417826949284485
23.6,0.012628973990023577,0.005450349541010094
23.700000000000003,0.01247191239337305,0.0053829840232329845
23.8,0.013171647088796323,0.00568302785639763
23.900000000000002,0.012817844834513693,0.005531344573839276
24.0,0.012803588763825889,0.005525231553182202
24.1,0.012027989079710191,0.005192523704157008
24.200000000000003,0.01248060661952261,0.005386713349630318
24.3,0.012860254886249265,0.005549529547504354
24.400000000000002,0.012988852794020712,0.005604666291492555
24.5,0.013093181306245467,0.0056493923158506985
24.6,0.01407607476061565,0.006070536466202054
24.700000000000003,0.013345219232366569,0.00575742291878452
24.8,0.0143541507671037,0.006189610688626986
24.900000000000002,0.009879138201257449,0.0042694007597654255
25.0,0.012470307574335312,0.0053822956440331875
25.1,0.012310603545560907,0.005313785931997317
25.200000000000003,0.012406818005288058,0.005355061231479123
25.3,0.012971928113477508,0.005597410183242728
25.400000000000002,0.012447056644576814,0.005372322150129611
25.5,0.012082283690389706,0.00521582268162688
25.6,0.012791562640512889,0.005520074669794175
25.700000000000003,0.013301828262360902,0.005738826233324082
25.8,0.014098387467259854,0.006080092138608663
25.900000000000002,0.013829835972087173,0.005965067916553814
26.0,0.011575617378772088,0.00499835273496893
26.1,0.013148474802377609,0.0056730949775632535
26.200000000000003,0.012689553255563004,0.005476329889676707
26.3,0.011256210227948735,0.004861201675407093
26.400000000000002,0.012873192891000463,0.005555077073094638
26.5,0.012264300849667007,0.0052939210158770835
26.6,0.01274161470681954,0.0054986560011369996
26.700000000000003,0.012470239025974305,0.005382266240528013
26.8,0.013237431251958032,0.00571122522224361
26.900000000000002,0.013715973891231428,0.005916290055925323
27.0,0.012065312398849533,0.00520854007211644
27.1,0.014027801630356529,0.00604986222525834
27.200000000000003,0.013431278628009698,0.005794304262835673
27.3,0.013084193845285131,0.005645539538942526
27.400000000000002,0.014412256081875628,0.006214487695162976
27.5,0.013571514906280644,0.005854396771940422
27.6,0.013770730494421403,0.0059397481536455875
27.700000000000003,0.014155364463377298,0.00610449223646847
27.8,0.012866433918559605,0.005552178986494013
27.900000000000002,0.013826232796648786,0.005963524420855153
28.0,0.013162114994914043,0.005678941919666359
28.1,0.011713003190121307,0.0050573318635479805
28.200000000000003,0.013289845096348691,0.005733690297019518
28.3,0.01410339568011478,0.006082236934284559
28.400000000000002,0.013566862221908074,0.005852403188106296
28.5,0.013570956523258293,0.005854157516270065
28.6,0.012809580374049733,0.005527800773502879
28.700000000000003,0.01385164740625994,0.005974411184302378
28.8,0.017181075550455636,0.007398271617253518
28.900000000000002,0.014687607333407383,0.006332356245662222
29.0,0.009496320872993633,0.004104740488703446
29.1,0.012803155116435025,0.005525045603298768
29.200000000000003,0.011601579374232479,0.005009498719993311
29.3,0.013314589248649892,0.005744295473463598
29.400000000000002,0.01427024188682049,0.006153683718762707
29.5,0.01535114777998831,0.006616264091270016
29.6,0.015392073614617717,0.006633768878642448
29.700000000000003,0.01275829608497484,0.00550580942577546
29.8,0.016145282213025122,0.006955805145473101
29.900000000000002,0.013773678984507822,0.005941011270713154
30.0,0.013250256898659319,0.005716722524419968
30.1,0.013793600380656103,0.005949545391881241
30.200000000000003,0.012956726947998163,0.005590892893238687
30.3,0.012457534890193755,0.005376816825355825
30.400000000000002,0.01772306430794033,0.007629616895475431
30.5,0.015945319476532768,0.006870333844879511
30.6,0.012288247345129077,0.00530419472386246
30.700000000000003,0.009824799829650524,0.004246032131813737
30.8,0.015598985461509568,0.0067222583609124874
30.900000000000002,0.01742696359967069,0.007503243013616007
31.0,0.015000952974416473,0.006466450004242703
31.1,0.015754417873119743,0.006788719901964038
31.200000000000003,0.01526737540285393,0.006580430791484041
31.3,0.016963436941903234,0.0073053389406185975
31.400000000000002,0.01573264373960989,0.006779410085317329
31.5,0.018398705558202444,0.007917838633337495
31.6,0.0158226335894209,0.006817885135109889
31.700000000000003,0.015406523525252031,0.006639949222140222
31.8,0.014533215577226212,0.006266270300620439
31.900000000000002,0.01808236330247,0.007782914032993135
32.0,0.009824671946167115,0.004245977133070712
32.1,0.01649925841457131,0.007107066135319572
32.2,0.017708679291909033,0.0076234783127357205
32.300000000000004,0.018904604358072348,0.00813352479124185
32.4,0.01630665039307497,0.007024767475330339
32.5,0.009407743791425751,0.0040666321521598435
32.6,0.012023446457503343,0.005190574311248146
32.7,0.014543794850696753,0.006270798980475617
32.800000000000004,0.0175023896168082,0.007535437844358441
32.9,0.017544510614989135,0.007553415726915106
33.0,0.015219943053002456,0.00656014048223594
33.1,0.017353365066394077,0.007471825925056827
33.2,0.022404557467870616,0.00962277672858182
33.300000000000004,0.019368894992863175,0.008331377399579948
33.4,0.012936475597191075,0.005582210253999963
33.5,0.02261838264808212,0.009713595363790845
33.6,0.019621041877083065,0.008438789406891837
33.7,0.023034125959170555,0.009890120973707561
33.800000000000004,0.015573258977319569,0.006711256959969151
33.9,0.011964019779351557,0.005165071506673433
34.0,0.022915116599013262,0.009839596642610453
34.1,0.01613603985211206,0.006951854997134148
34.2,0.017349419066987365,0.00747014142766357
34.300000000000004,0.012773741703205438,0.0055124328181900325
34.4,0.018563817595093544,0.007988244687312056
34.5,0.010926381196297857,0.004719530067417585
34.6,0.015639320294763868,0.00673950616040847
34.7,0.013594381833205651,0.0058641946678086926
34.800000000000004,0.013744467117003344,0.005928496903935663
34.9,0.02315652041838049,0.00994207628726341
35.0,0.012417046319330265,0.005359448872721402
35.1,0.025644149890955273,0.010996707222840164
35.2,0.011128164959286077,0.004806207823228821
35.300000000000004,0.022163938785390722,0.009520555289957672
35.4,0.01807797346151757,0.007781041406689898
35.5,0.02354449677617077,0.010106727588943458
35.6,0.026234417318535982,0.011246575707080562
35.7,0.013432794334827398,0.005794953801318152
35.800000000000004,0.009903428117430864,0.0042798464153883465
35.9,0.018794649234247788,0.008086655358968088
36.0,0.007082311823296021,0.0030649681799691715
36.1,0.013373260486905668,0.005769440534683904
36.2,0.023576696569544087,0.01012038988957033
36.300000000000004,0.0168835353837864,0.007271215620353498
36.4,0.01417459186227996,0.006112725959210625
36.5,0.011453078572539254,0.004945740601945347
36.6,0.02363937630757242,0.010146983530292471
36.7,0.02300519126851924,0.009877837557274127
36.800000000000004,0.01645264002035009,0.007087148190989878
36.9,0.009399109358884454,0.004062917199041698
37.0,0.011075339879790601,0.004783518078619791
37.1,0.019002648459243182,0.008175312769664968
37.2,0.018674412585116054,0.008035397536918568
37.300000000000004,0.018659163490499092,0.008028896296548222
37.4,0.01851751466935257,0.00796850163156831
37.5,0.023167449456697253,0.009946715260469422
37.6,0.019888171507695198,0.008552554938746067
37.7,0.03101356573296137,0.01326437962319507
37.800000000000004,0.018513553313457057,0.00796681251152166
37.9,0.022548918900922428,0.009684093892617788
38.0,0.017780112733721747,0.007653960573052691
38.1,0.02571617569879427,0.011027204459743666
38.2,0.016961545034794644,0.007304531000478435
38.300000000000004,0.016242090792290137,0.006997178588711331
38.400000000000006,0.036846880184887514,0.015714625240758423
38.5,0.017580805121370224,0.007568906177281434
38.6,0.022737968906635667,0.00976437932837572
38.7,0.02464961214138191,0.01057537999787489
