Frequency (Hz),Power,Log Power
0.0,0.0012164815165239887,0.0005279901299183469
0.1,0.0012164825870529545,0.0005279905942782019
0.2,0.001216485424399169,0.0005279918250248847
0.30000000000000004,0.0012164900958577286,0.000527993851348559
0.4,0.0012164969554127306,0.0005279968267957985
0.5,0.00121650542455526,0.0005280005004286733
0.6000000000000001,0.0012165159205180568,0.0005280050532288546
0.7000000000000001,0.001216528525993895,0.0005280105210657764
0.8,0.001216542702063871,0.0005280166701740883
0.9,0.0012165590454753187,0.0005280237594031161
1.0,0.0012165773429355766,0.0005280316962334244
1.1,0.0012165972934559315,0.0005280403501061304
1.2000000000000002,0.0012166194905158243,0.0005280499784528614
1.3,0.0012166435223033923,0.0005280604026431425
1.4000000000000001,0.0012166693438936474,0.0005280716031901589
1.5,0.0012166974043641525,0.0005280837748885066
1.6,0.0012167272233232587,0.0005280967093603599
1.7000000000000002,0.0012167589958580888,0.0005281104912279182
1.8,0.0012167929662970835,0.0005281252264726876
1.9000000000000001,0.0012168286546864195,0.0005281407069064932
2.0,0.0012168664283685828,0.0005281570918701269
2.1,0.0012169063146091382,0.0005281743931906494
2.2,0.0012169480076082975,0.0005281924782219064
2.3000000000000003,0.001216991846096528,0.0005282114938939139
2.4000000000000004,0.001217037770796393,0.0005282314144939639
2.5,0.0012170854943985426,0.0005282521153967732
2.6,0.0012171355011979725,0.0005282738066732125
2.7,0.0012171875112793613,0.0005282963669051016
2.8000000000000003,0.0012172414748491934,0.0005283197744936487
2.9000000000000004,0.0012172976756981597,0.0005283441525375372
3.0,0.0012173559106529702,0.0005283694129069617
3.1,0.0012174161492501678,0.0005283955423876677
3.2,0.001217478747102089,0.0005284226952321184
3.3000000000000003,0.0012175432362240344,0.0005284506684442709
3.4000000000000004,0.0012176101085372905,0.0005284796754027083
3.5,0.0012176790302995814,0.00052850957134113
3.6,0.001217750131606278,0.0005285404126902907
3.7,0.0012178235110578619,0.0005285722422196356
3.8000000000000003,0.0012178991299936414,0.0005286050431591766
3.9000000000000004,0.0012179762440356037,0.0005286384926227499
4.0,0.001218056595720019,0.0005286733464633538
4.1000000000000005,0.001218138991433411,0.0005287090869316144
4.2,0.0012182234685785465,0.0005287457302513553
4.3,0.0012183095951565069,0.0005287830890360087
4.4,0.0012183998560513496,0.0005288222411433789
4.5,0.0012184900470648186,0.0005288613629351297
4.6000000000000005,0.0012185844403757619,0.00052890230753668
4.7,0.0012186794792790805,0.0005289435321702463
4.800000000000001,0.001218779250545071,0.0005289868095371844
4.9,0.0012188778115712355,0.000529029561939063
5.0,0.001218984279818639,0.0005290757442184584
5.1000000000000005,0.0012190907732017732,0.0005291219373958382
5.2,0.0012191968317704087,0.0005291679419608533
5.300000000000001,0.0012193076660349923,0.0005292160180534183
5.4,0.0012194226128451541,0.0005292658780213339
5.5,0.001219539429839906,0.000529316549204997
5.6000000000000005,0.0012196561344818536,0.0005293671716479893
5.7,0.0012197786464505013,0.0005294203131023503
5.800000000000001,0.0012198996670215439,0.0005294728076336996
5.9,0.0012200232505190762,0.0005295264138671515
6.0,0.0012201570982668722,0.0005295844723688175
6.1000000000000005,0.0012202845843776553,0.0005296397714062103
6.2,0.0012204196536162242,0.0005296983597328565
6.300000000000001,0.0012205602126556757,0.0005297593293352187
6.4,0.001220704203223723,0.0005298217874060732
6.5,0.0012208436124518556,0.0005298822582433697
6.6000000000000005,0.0012209883384673634,0.0005299450353077224
6.7,0.0012211222411171896,0.0005300031175680164
6.800000000000001,0.0012212891424220192,0.0005300755134734117
6.9,0.001221440641512273,0.0005301412284304374
7.0,0.0012216010931189337,0.0005302108266621333
7.1000000000000005,0.001221754124373873,0.0005302772061973473
7.2,0.0012218854537497993,0.0005303341722183654
7.300000000000001,0.0012220707920616246,0.0005304145653857775
7.4,0.001222243837283414,0.0005304896262345194
7.5,0.0012224313442700128,0.0005305709600667194
7.6000000000000005,0.0012225781525164242,0.0005306346402287493
7.7,0.0012227704274831305,0.0005307180422123937
7.800000000000001,0.001222976377473336,0.0005308073759128676
7.9,0.0012231188002181073,0.0005308691537677357
8.0,0.0012232901796994388,0.0005309434919999047
8.1,0.0012235003475595037,0.000531034655213231
8.200000000000001,0.0012237022762532487,0.0005311222445562365
8.3,0.0012240083980649239,0.0005312550290608136
8.4,0.0012241659310026577,0.0005313233611019496
8.5,0.0012243340192802609,0.0005313962716527052
8.6,0.0012244251328062522,0.0005314357933646253
8.700000000000001,0.0012247765624418194,0.0005315882306413317
8.8,0.0012254349650490316,0.0005318738213817007
8.9,0.0012251389876294214,0.0005317454373288718
9.0,0.0012257138986237895,0.0005319948124104914
9.1,0.0012257624322741518,0.0005320158645027076
9.200000000000001,0.0012260553886588354,0.0005321429380634137
9.3,0.0012261254654407755,0.0005321733347540253
9.4,0.0012260949685604068,0.0005321601063465612
9.5,0.0012264590945233486,0.0005323180505597181
9.600000000000001,0.0012269607298515904,0.0005325356410942025
9.700000000000001,0.001227230295619947,0.0005326525685387746
9.8,0.0012274013282807092,0.0005327267560280636
9.9,0.0012273908764216638,0.0005327222224079507
10.0,0.0012282318559858328,0.0005330870073049411
10.100000000000001,0.0012282086748460642,0.000533076952213763
10.200000000000001,0.0012283507791010072,0.0005331385915971723
10.3,0.0012287413657180262,0.0005333080130674839
10.4,0.0012286006631194108,0.0005332469816928636
10.5,0.0012293995022919493,0.000533593487281953
10.600000000000001,0.0012295960483108205,0.0005336787413138092
10.700000000000001,0.0012301993808280607,0.0005339404434299818
10.8,0.0012301107339835683,0.0005339019918959127
10.9,0.0012300013780860415,0.0005338545575798585
11.0,0.0012309277796292318,0.0005342563942123781
11.100000000000001,0.001230973554505647,0.0005342762495477379
11.200000000000001,0.0012313468754553377,0.0005344381814120102
11.3,0.001231674511940132,0.0005345802971124378
11.4,0.001231024671930712,0.000534298422268727
11.5,0.0012316224124328439,0.0005345576984176192
11.600000000000001,0.0012312413023026418,0.0005343923879595782
11.700000000000001,0.0012332448927744276,0.0005352614653308637
11.8,0.0012329918366809874,0.0005351516998197499
11.9,0.0012329774045724154,0.0005351454397532764
12.0,0.0012360188439472838,0.0005364646914770161
12.100000000000001,0.0012326291257612678,0.0005349943704261047
12.200000000000001,0.0012330394990693846,0.0005351723738406696
12.3,0.0012337193535554697,0.0005354672671770802
12.4,0.00123587748129215,0.0005364033742408682
12.5,0.001235040072496273,0.0005360401409814466
12.600000000000001,0.0012362051162893059,0.0005365454886529188
12.700000000000001,0.0012348557246645068,0.0005359601784848236
12.8,0.0012389413972216416,0.0005377323715082654
12.9,0.0012390965369529201,0.0005377996644602421
13.0,0.0012379231857615844,0.0005372907148516267
13.100000000000001,0.0012367058069884412,0.0005367626673289283
13.200000000000001,0.0012344438281955022,0.0005357815147084424
13.3,0.001237215139424285,0.0005369835943172911
13.4,0.0012341212879412363,0.0005356416099378339
13.5,0.0012405231208815494,0.000538418454806124
13.600000000000001,0.0012384217615641871,0.0005375069758031679
13.700000000000001,0.0012364175445099502,0.0005366376311401118
13.8,0.0012386292620982528,0.0005375969806667946
13.9,0.0012450398136812568,0.0005403775947825694
14.0,0.0012402420170936938,0.000538296524222713
14.100000000000001,0.0012425872143348048,0.0005393137676227575
14.200000000000001,0.001237917015403064,0.0005372880384122202
14.3,0.0012423823785043288,0.000539224918944998
14.4,0.001240942480437926,0.0005386003546581986
14.5,0.001246559837768928,0.0005410369114795953
14.600000000000001,0.0012468154962303145,0.0005411478042899828
14.700000000000001,0.0012460479691485898,0.0005408148864729378
14.8,0.0012464806734249286,0.0005410025736446529
14.9,0.0012434690008227538,0.0005396962471957779
15.0,0.0012431594654053071,0.0005395619846025886
15.100000000000001,0.001244493358563759,0.0005401405673842696
15.200000000000001,0.0012469720858012626,0.0005412157255858911
15.3,0.0012505227346287324,0.0005427558295779371
15.4,0.001242984693306698,0.000539486176279798
15.5,0.001249668792375488,0.0005423854302042258
15.600000000000001,0.0012440539108593538,0.0005399499548452996
15.700000000000001,0.0012479313721153792,0.0005416318192818964
15.8,0.0012390589272873636,0.0005377833510036449
15.9,0.0012455971304370427,0.0005406193333328278
16.0,0.001238127638854589,0.000537379397909898
16.1,0.0012531831165509943,0.0005439097741976062
16.2,0.0012471139703240455,0.0005412772685045419
16.3,0.0012664657905061937,0.0005496711079322186
16.400000000000002,0.0012528157008644396,0.0005437504072790311
16.5,0.0012375600573240803,0.0005371332051313168
16.6,0.0012584451965797529,0.000546192200214559
16.7,0.00124245024457874,0.0005392543562332149
16.8,0.0012399637199125599,0.0005381758109894686
16.900000000000002,0.0012673249730428071,0.0005500437740378748
17.0,0.0011951609188357673,0.0005187418637466988
17.1,0.0013156599964903395,0.000571008332438234
17.2,0.0012624117393288108,0.0005479126793018319
17.3,0.0012836465180276022,0.0005571231013799863
17.400000000000002,0.0012927674019725588,0.0005610791547318495
17.5,0.001352046308081875,0.0005867896568117236
17.6,0.0013056903012367068,0.000566684216314857
17.7,0.0011193863373495845,0.00048587142121922754
17.8,0.0011634277495601497,0.0005049765567843474
17.900000000000002,0.001173097328856973,0.000509171101385989
18.0,0.0011156880558626575,0.00048426707089813055
18.1,0.0012419516103765573,0.0005390380708206726
18.2,0.0009963951343820272,0.0004325134672658084
18.3,0.0008681702658427504,0.00037687798234039313
18.400000000000002,0.001522802343010409,0.0006608416166242064
18.5,0.001151902701235964,0.0004999770796142208
18.6,0.0011272797541888562,0.0004892956420554795
18.7,0.0011843368518384724,0.0005140466173421193
18.8,0.0016871386072429642,0.0007320975857903997
18.900000000000002,0.0014023582185825434,0.0006086097911823189
19.0,0.001082271381662884,0.00046977032531764955
19.1,0.001055241599425562,0.0004580439726597257
19.200000000000003,0.001195048327966141,0.0005186930245212428
19.3,0.0012932094874167966,0.0005612709020737207
19.400000000000002,0.0012673949892889054,0.0005500741432185301
19.5,0.001030390055946754,0.0004472623277295031
19.6,0.0012413622277089454,0.0005387824226077945
19.700000000000003,0.0009254609597236842,0.00040173672085926933
19.8,0.0010495431437145453,0.0004555717665199101
19.900000000000002,0.0031308640112854905,0.0013575928516197425
20.0,0.0011006093098520694,0.00047772570351918445
20.1,0.0011532138034287603,0.0005005458285454968
20.200000000000003,0.0011422626506273962,0.0004957952557274095
20.3,0.0013949426843442034,0.0006053937636805978
20.400000000000002,0.001428946897452595,0.0006201407838181909
20.5,0.0012133152369131195,0.0005266167007320388
20.6,0.0010181616950288431,0.0004419570521259052
20.700000000000003,0.0011699252672117877,0.0005077951045130376
20.8,0.0015863975974979854,0.0006884178147757719
20.900000000000002,0.001631517570002331,0.0007079816924121033
21.0,0.0013600606993020266,0.0005902655491984497
21.1,0.0016972761469509498,0.0007364928256882788
21.200000000000003,0.0016605780742288544,0.0007205817687117646
21.3,0.0013168203443477654,0.0005715116026852555
21.400000000000002,0.0006500400911340145,0.0002822171083123742
21.5,0.0017009619917204134,0.0007380908524949609
21.6,0.0017953838071834934,0.0007790261639501868
21.700000000000003,0.0013995774503325373,0.0006074038084190001
21.8,0.0010320385750871312,0.00044797753296557256
21.900000000000002,0.0009039252430270316,0.00039239242509651493
22.0,0.0008038417207330654,0.00034896378659564386
22.1,0.0018810723001097573,0.0008161719212401678
22.200000000000003,0.0014112177126933496,0.0006124520153923301
22.3,0.0009818183121153414,0.00042618908927633117
22.400000000000002,0.002171283212306429,0.0009419540628987763
22.5,0.0009324482255572594,0.00040476843552908714
22.6,0.001034935878608306,0.0004492345168205235
22.700000000000003,0.0011497895609166846,0.0004990604093805092
22.8,0.0016278743115932387,0.0007064020197749314
22.900000000000002,0.0009319783522005283,0.0004045645621765415
23.0,0.0007516028912704718,0.00032629438171564296
23.1,0.0013070970177729777,0.0005672943484713264
23.200000000000003,0.001899345345283241,0.0008240928317518459
23.3,0.001419112803333828,0.0006158759642382285
23.400000000000002,0.0013307501355997026,0.0005775532363347242
23.5,0.0013629725781753768,0.0005915284426746395
23.6,0.001237016986108936,0.0005368976437566996
23.700000000000003,0.0014205427323134236,0.0006164960940261196
23.8,0.0011797234893296986,0.0005120454249312885
23.900000000000002,0.0006087291884326667,0.00026428729597268157
24.0,0.0016934582651231304,0.0007348375469831404
24.1,0.002059713269866111,0.0008936021409065565
24.200000000000003,0.001356726011749399,0.0005888192774014132
24.3,0.0012241051820637092,0.0005312970104297594
24.400000000000002,0.001136885422974438,0.0004934626136481516
24.5,0.0014024086894585605,0.0006086316797092175
24.6,0.0005375455653676575,0.00023339034945545677
24.700000000000003,0.0002966477523263075,0.0001288133767494617
24.8,0.001680805591427022,0.0007293518157678116
24.900000000000002,0.0032035034683406786,0.0013890401675732806
25.0,0.0018595032239375109,0.0008068220773770079
25.1,0.0015318572705891194,0.0006647681246329488
25.200000000000003,0.0019220841260891056,0.0008339493258330631
25.3,0.001652596162897297,0.0007171210017273689
25.400000000000002,0.001636240324521587,0.0007100294129117813
25.5,0.0012232801282961309,0.0005309391320643756
25.6,0.0017577927780758503,0.0007627295398293464
25.700000000000003,0.0017902144149009563,0.0007767851431071968
25.8,0.0013775310580419423,0.0005978424583542213
25.900000000000002,0.00149719159911888,0.0006497357816512008
26.0,0.0032960579288932486,0.0014291058543995745
26.1,0.002729085090423885,0.001183612239775931
26.200000000000003,0.0016112563647702363,0.0006991966068061368
26.3,0.0026643412551165817,0.001155569971309763
26.400000000000002,0.002202657753757654,0.000955550118951162
26.5,0.0013811316552624975,0.0005994040239423042
26.6,0.0012517962630656367,0.0005433082248160931
26.700000000000003,0.001661315329619521,0.000720901423729671
26.8,0.0021759575882361296,0.0009439797155713991
26.900000000000002,0.0020600497140602293,0.0008937479564008671
27.0,0.0014840771372203576,0.0006440487205442343
27.1,0.00235182935605487,0.0010201873281370708
27.200000000000003,0.0017306827836133768,0.0007509763192405659
27.3,0.0017814836402198666,0.0007730001752216922
27.400000000000002,0.0018171447628551971,0.0007884597873027506
27.5,0.0009399475032134296,0.00040802228418728456
27.6,0.0012913726136842252,0.0005604741875348318
27.700000000000003,0.0014789974938665387,0.0006418459229923467
27.8,0.0018844082457083644,0.0008176179814497978
27.900000000000002,0.0018749280637776662,0.000813508515182749
28.0,0.001553714635060134,0.000674246035025024
28.1,0.0009918707186510045,0.00043055048994031166
28.200000000000003,0.0016486832190523361,0.0007154244322324581
28.3,0.0010357786321025463,0.0004496001414604927
28.400000000000002,0.0015586204590077952,0.0006763732969187987
28.5,0.0019235554938455207,0.000834587106393379
28.6,0.0004281799451567087,0.00018591638744873314
28.700000000000003,0.0016589385466226044,0.000719870910771774
28.8,0.0010432578024492127,0.00045284493085366275
28.900000000000002,0.0019819536891082508,0.0008598996910902493
29.0,0.0051048040502296495,0.0022113487690509173
29.1,0.0021320685703406627,0.0009249599261554313
29.200000000000003,0.0018527717408502158,0.0008039040476815093
29.3,0.0025262947496065874,0.001095772329522221
29.400000000000002,0.00106116496503789,0.0004606137383249569
29.5,0.0010618320779439046,0.0004609031545639414
29.6,0.0005446569966723086,0.00023647713456616533
29.700000000000003,0.0020496124281066484,0.0008892243958579248
29.8,0.0032968207608079286,0.0014294360595893893
29.900000000000002,0.0009270816798439535,0.00040243993929307614
30.0,0.0019945041018446783,0.0008653394506004015
30.1,0.0026862657212742727,0.001165066240578795
30.200000000000003,0.00213218750570693,0.0009250114692322455
30.3,0.0008970122429661256,0.0003893928483417943
30.400000000000002,0.0028973124215955957,0.001256467485294445
30.5,0.0006702635052253968,0.00029099423122432125
30.6,0.0018239764744243459,0.0007914213701979984
30.700000000000003,0.0011284644085708172,0.0004898095512926311
30.8,0.0014831043582568797,0.0006436268738560731
30.900000000000002,0.0010394137265071345,0.00045117720654490226
31.0,0.003245643174571838,0.00140728238609002
31.1,0.0029701454576949184,0.0012880059456925439
31.200000000000003,0.0009033096614057955,0.0003921253227535911
31.3,0.004279443431530291,0.0018545732216267684
31.400000000000002,0.0014591974608224442,0.0006332594922033554
31.5,0.001117746036860699,0.0004851598437148273
31.6,0.002340533492107936,0.0010152930795515784
31.700000000000003,0.0004215294540727638,0.00018302934244370363
31.8,0.0029341940404763165,0.001272438401608956
31.900000000000002,0.0034441484494869565,0.0014932047306052362
32.0,0.0022739387989718406,0.0009864379473918507
32.1,0.0037772853253705352,0.0016373637215453699
32.2,0.0010862413125385408,0.00047149257702811014
32.300000000000004,0.0036549659978211972,0.001584437791900092
32.4,0.0013855536702642088,0.0006013218276767257
32.5,0.0035360876217068807,0.0015329945346862343
32.6,0.0025752098411265735,0.0011169618346764283
32.7,0.0009380038721839214,0.0004071789678099114
32.800000000000004,0.00158597777997906,0.0006882357790867419
32.9,0.0006852564270185623,0.0002975011642880991
33.0,0.00340870545915738,0.0014778645973275131
33.1,0.0027789937364489136,0.001205227759355485
33.2,0.0012857446739437638,0.0005580331497813566
33.300000000000004,0.001137782262114861,0.0004938516634584167
33.4,0.005579645765561851,0.002416474084063791
33.5,0.003009941172149019,0.0013052374818461013
33.6,0.002061902270189915,0.0008945508565475436
33.7,0.00022282511884444528,9.676093955999818e-05
33.800000000000004,0.00185353326236443,0.0008042341605234816
33.9,0.004520673049553707,0.0019588789627736944
34.0,0.0025519647650521925,0.001106892440177414
34.1,0.00247247290115667,0.001072456074000935
34.2,0.0025533281127704853,0.0011074830270090038
34.300000000000004,0.0007353180772520385,0.00031922723099577773
34.4,0.002129983624198761,0.0009240563710504232
34.5,0.004738503352937213,0.002053045509561142
34.6,0.005028624124305175,0.002178431032334581
34.7,0.002886526248291381,0.0012517966175203171
34.800000000000004,0.004031457288066452,0.0017473198932664862
34.9,0.0010701059837389976,0.0004644926399143687
35.0,0.0023886554866956533,0.0010361428949047687
35.1,0.0009324489054475412,0.00040476873052665144
35.2,0.0034940333223149695,0.0015147945585340858
35.300000000000004,0.0012490324085790805,0.0005421093970951428
35.4,0.004326770835535901,0.0018750391848008777
35.5,0.006574571726615509,0.002845954972005051
35.6,0.004322986495940211,0.0018734027444029836
35.7,0.0015343747265604381,0.0006658597682533943
35.800000000000004,0.004577468917517939,0.001983433394976993
35.9,0.007424762429766529,0.003212621580692276
36.0,0.023502755169501767,0.010089016078447092
36.1,0.009929247746107657,0.004290949634376496
36.2,0.0036121478985783866,0.0015659094514507723
36.300000000000004,0.002405965348044104,0.0010436424933057524
36.4,0.005909415830993301,0.0025588733878742524
36.5,0.0009811374335647793,0.00042589367741923436
36.6,0.0034137525391462593,0.001480049064598289
36.7,0.00437807958125575,0.0018972257246897552
36.800000000000004,0.002306453848027307,0.0010005267875667083
36.9,0.0021957087059675667,0.0009525388082653946
37.0,0.003492662352503787,0.0015142012266249534
37.1,0.005761369932015414,0.002494950883689518
37.2,0.0029222185748704324,0.0012672527077595
37.300000000000004,0.0015865869809364122,0.000688499932678651
37.4,0.004120849215531036,0.001785984710396673
