Frequency (Hz),Power,Log Power
0.0,0.052088365534984415,0.022052218004554362
0.2,0.05208848235637943,0.022052266227580167
0.4,0.05208885979075318,0.022052422029719576
0.6000000000000001,0.05208948402207122,0.022052679707703596
0.8,0.05209035492067059,0.02205303920782715
1.0,0.05209147777480699,0.02205350271278458
1.2000000000000002,0.05209284264799673,0.02205406612055174
1.4000000000000001,0.05209445403040089,0.022054731284235102
1.6,0.052096303033023414,0.022055494534081448
1.8,0.05209839025468748,0.022056356116761086
2.0,0.052100726112415834,0.02205732033171018
2.2,0.05210329161167808,0.022058379337551424
2.4000000000000004,0.052106082467633597,0.02205953136486978
2.6,0.052109104097427625,0.02206077864903942
2.8000000000000003,0.05211235251609461,0.022062119544312232
3.0,0.0521158161589707,0.022063549276135762
3.2,0.05211948954164213,0.022065065579773266
3.4000000000000004,0.052123382447425,0.022066672492665848
3.6,0.0521274728469719,0.022068360920590217
3.8000000000000003,0.0521317687110059,0.0220701341527169
4.0,0.052136253767935244,0.022071985471517223
4.2,0.052140926022577555,0.022073914052436774
4.4,0.05214578745275533,0.02207592071083255
4.6000000000000005,0.05215081512079427,0.02207799597767803
4.800000000000001,0.05215601826146768,0.022080143663792233
5.0,0.052161381925238746,0.0220823575974681
5.2,0.05216690013375241,0.022084635310054983
5.4,0.05217256450844447,0.022086973342215276
5.6000000000000005,0.05217836596162697,0.022089367941963554
5.800000000000001,0.05218431425978259,0.022091823139529995
6.0,0.05219038002248086,0.022094326807033215
6.2,0.05219656603523037,0.022096880093354608
6.4,0.05220284416169046,0.02209947138440428
6.6000000000000005,0.05220922160346418,0.02210210365193029
6.800000000000001,0.052215701605755324,0.022104778234621987
7.0,0.05222223823929103,0.022107476174837732
7.2,0.052228866550305224,0.02211021193704318
7.4,0.05223556592739692,0.02211297701347616
7.6000000000000005,0.052242357732312714,0.022115780220261033
7.800000000000001,0.05224920828593905,0.022118607656289733
8.0,0.05225603547722179,0.02212142543164068
8.200000000000001,0.05226283421091436,0.02212423144356978
8.4,0.05226970735311653,0.0221270681473724
8.6,0.05227654904619656,0.022129891852997807
8.8,0.052283263765487115,0.022132663136111442
9.0,0.05229011195129504,0.022135489484996954
9.200000000000001,0.052297310684953656,0.022138460490402544
9.4,0.05230408575488127,0.0221412566260405
9.600000000000001,0.05231086988974003,0.02214405648482299
9.8,0.052317814117893484,0.0221469223965071
10.0,0.05232382963295708,0.02214940500917012
10.200000000000001,0.052330790154494794,0.02215227760980163
10.4,0.052336530890327776,0.02215464679173312
10.600000000000001,0.05234377333311769,0.02215763570452227
10.8,0.05235068631566462,0.022160488631853204
11.0,0.05235637422807002,0.022162835969416213
11.200000000000001,0.05236303297304238,0.022165583942555134
11.4,0.05237088868347391,0.022168825864640144
11.600000000000001,0.0523733162535247,0.022169827677853363
11.8,0.05238411258234293,0.022174283094868547
12.0,0.05238360395778865,0.022174073197276965
12.200000000000001,0.052389093097683755,0.022176338433014926
12.4,0.05239022149527203,0.02217680409403941
12.600000000000001,0.052398064858821314,0.022180040837165668
12.8,0.05240365833046015,0.022182349096267352
13.0,0.0524137716605387,0.02218652253514543
13.200000000000001,0.052417087773540066,0.02218789097724279
13.4,0.052418476630714375,0.02218846410800615
13.600000000000001,0.0524268609747065,0.02219192400528711
13.8,0.052426164384710115,0.022191636550355175
14.0,0.05242555037010047,0.022191383170836906
14.200000000000001,0.05243519144541038,0.022195361643829004
14.4,0.052439213415631826,0.022197021333803347
14.600000000000001,0.05244234339447912,0.022198312933834254
14.8,0.052467860711026625,0.02220884262745112
15.0,0.05243211021594943,0.022194090151843458
15.200000000000001,0.0524671964869647,0.02220856853933246
15.4,0.05242502755085143,0.022191167423916577
15.600000000000001,0.05241343740380719,0.022186384599020927
15.8,0.05244169669691489,0.022198046071452933
16.0,0.05243038633940009,0.02219337877989003
16.2,0.05245167477904674,0.02220216354939135
16.400000000000002,0.05247525806143265,0.022211895088520867
16.6,0.052450254977717777,0.02220157766757534
16.8,0.0524725888705066,0.022210793669412525
17.0,0.052446849554780114,0.022200172414665653
17.2,0.05244235139261343,0.022198316234295832
17.400000000000002,0.05246117476550067,0.022206083703801564
17.6,0.052414000238082604,0.022186616861120577
17.8,0.05245909210251436,0.02220522429923708
18.0,0.05243834343494931,0.022196662331629095
18.2,0.052470117465380675,0.022209773862454846
18.400000000000002,0.052455413213077624,0.022203706212514
18.6,0.05253874926202851,0.022238093373169465
18.8,0.052332307424721294,0.022152903783261613
19.0,0.05253093092463417,0.022234867388946696
19.200000000000003,0.052516259275735326,0.022228813542565503
19.400000000000002,0.05266265798242285,0.022289217102617703
19.6,0.05231866928050115,0.022147275324344805
19.8,0.05335720683062708,0.02257567094682198
20.0,0.051419555392825306,0.021776050217327547
20.200000000000003,0.05248060019690228,0.022214099467246343
20.400000000000002,0.05281474520374787,0.022351958826660395
20.6,0.053191736333810205,0.0225074428393608
20.8,0.05229391803480401,0.02213706030473338
21.0,0.05158693797817253,0.021845182988496477
21.200000000000003,0.05209545534495753,0.022055144617066556
21.400000000000002,0.052086886515940296,0.022051607475741357
21.6,0.05186658546760075,0.021960659143209278
21.8,0.05217282804484989,0.022087082119421755
22.0,0.05267977488807002,0.02229627892548698
22.200000000000003,0.05197425050773277,0.022005109590281555
22.400000000000002,0.052132105667046666,0.022070273239977737
22.6,0.0514750008297425,0.02179895164834235
22.8,0.05185403760703762,0.0219554783539518
23.0,0.05164337949273304,0.021868492122190646
23.200000000000003,0.052092591657042595,0.022053962513726353
23.400000000000002,0.05240552250292657,0.022183118381980133
23.6,0.05260944295916499,0.022267261754470764
23.8,0.05271728408694125,0.022311753477446315
24.0,0.0528897915743397,0.022382914949971484
24.200000000000003,0.051449171696832566,0.021788283218122945
24.400000000000002,0.0515985652223158,0.021849984893001363
24.6,0.0511147631506264,0.02165013589700112
24.8,0.04902578572285675,0.020786163560109882
25.0,0.05243239890662509,0.022194209282330804
25.200000000000003,0.052353665214273454,0.022161717991432427
25.400000000000002,0.052715714564301325,0.02231110597641242
25.6,0.0523570116615668,0.022163099030270132
25.8,0.05188247447591322,0.021967219344484715
26.0,0.048785161571293645,0.02068653423762064
26.200000000000003,0.05142047602774646,0.02177643049034884
26.400000000000002,0.05202323231371649,0.022025330648747538
26.6,0.05158680405215983,0.021845127678440872
26.8,0.05336042063060587,0.02257699598020903
27.0,0.05173453027703445,0.02190613279768137
27.200000000000003,0.05136332920417173,0.021752825067783657
27.400000000000002,0.05314960132297754,0.02249006768522521
27.6,0.050445978646705955,0.021373722825836303
27.8,0.05112274090113393,0.021653432092618184
28.0,0.05090710656162958,0.021564328882026643
28.200000000000003,0.050940356807953426,0.021578069554224064
28.400000000000002,0.05295294245316092,0.02240896255339838
28.6,0.05208044872638468,0.02204894999082287
28.8,0.05125825934727609,0.021709420910468263
29.0,0.05403492591774818,0.022855001656460656
29.200000000000003,0.04975098486593259,0.02108629076093157
29.400000000000002,0.05694369957532928,0.024051854275289188
29.6,0.05471578924932389,0.02313544751094892
29.8,0.05085919430296288,0.02154452836514755
30.0,0.05154193410656764,0.021826596459287837
30.200000000000003,0.05975334675554746,0.025204796766723863
30.400000000000002,0.05823910418312621,0.024583805596315095
30.6,0.054033338378741955,0.02285434754156134
30.8,0.051012717986724146,0.021607971326088913
31.0,0.0551247207178357,0.023303798323852737
31.200000000000003,0.05016072782853849,0.021255773229019247
31.400000000000002,0.053870317592519784,0.02278717271805133
31.6,0.05202907065359444,0.02202774081582268
31.8,0.05100642333946775,0.021605370274066872
32.0,0.051434630675342576,0.021782277098919094
32.2,0.05145495570522496,0.021790672259920246
32.4,0.05426380110935742,0.02294929496686938
32.6,0.05287991636060873,0.022378841616771897
32.800000000000004,0.0553411159352807,0.023392858518567844
33.0,0.05317367365548251,0.02249999444366544
33.2,0.05340494457499735,0.022595352560095875
33.4,0.05418493349236191,0.022916804946774588
33.6,0.04940564458667295,0.02094339586980229
33.800000000000004,0.05891844424151914,0.02486251291220751
34.0,0.05441304580991641,0.02301077062646032
34.2,0.048574940456882966,0.020599474442609168
34.4,0.05674375446693016,0.023969689755313307
34.6,0.04958975261531721,0.02101958193598042
34.800000000000004,0.05066708495937178,0.021465126999673945
35.0,0.05494128618833313,0.0232282892128643
35.2,0.04956888657985053,0.021010947996750174
35.4,0.057168478273723414,0.02414420523920935
35.6,0.051931607210556556,0.02198750447873303
35.800000000000004,0.05004918662364672,0.021209642859381875
36.0,0.05691449461400586,0.024039853892687764
36.2,0.051859715274054745,0.021957822569701003
36.4,0.05320018338370603,0.02251092605359446
36.6,0.05419328568077833,0.022920245799376945
36.800000000000004,0.054384275533953516,0.02299892048612882
37.0,0.05459788225447574,0.023086894886476313
37.2,0.050386183827007866,0.021349000660294326
37.4,0.062354457978797184,0.026269444674128617
37.6,0.04685378082241403,0.019886025884575484
37.800000000000004,0.058644281070082856,0.024750055744598806
38.0,0.05855643070670139,0.02471401482711807
38.2,0.04763181681387262,0.020208679574565874
38.400000000000006,0.068036276567217,0.028586004045910246
38.6,0.055467686884841445,0.023444941933186792
38.800000000000004,0.06203024390651339,0.02613688451822427
39.0,0.0640808701063493,0.026974635577723487
39.2,0.04663598162677264,0.019795660991593526
39.400000000000006,0.07239564105143366,0.03035504004493689
39.6,0.04446254140167501,0.01889286906092507
39.800000000000004,0.04845047753140419,0.02054792183734573
40.0,0.07082891385989336,0.029720089224150526
40.2,0.04681983433907385,0.019871942724440827
40.400000000000006,0.07176221018306521,0.0300984399642627
40.6,0.0642322921809224,0.02703643265975226
40.800000000000004,0.043860400826178654,0.01864242279973887
41.0,0.06238517599222844,0.026282002131537422
41.2,0.05402323855492202,0.022850186080430532
41.400000000000006,0.05670695049112362,0.02395456400521278
41.6,0.07488752793237932,0.03136302373648476
41.800000000000004,0.05691040071467232,0.0240381716739818
42.0,0.06478408727441602,0.027261552176843763
42.2,0.03877430315556812,0.016521197661371678
42.400000000000006,0.07168890760145581,0.030068735618359443
42.6,0.05235440020619487,0.022162021314198106
42.800000000000004,0.08008903320436071,0.033459556445880126
43.0,0.027016693647548218,0.011577502896295201
43.2,0.04331627856585599,0.01841598360767092
43.400000000000006,0.07025159789046963,0.029485884910454088
43.6,0.049532584023472916,0.02099592633139844
43.800000000000004,0.09976040274055782,0.04129807870205217
44.0,0.05711422339815042,0.024121916268047466
44.2,0.027583230389814386,0.011817008197856785
44.400000000000006,0.07451006094101428,0.031210486268326884
44.6,0.053493098016363955,0.02263169466341051
44.800000000000004,0.01963725388514269,0.00844569464852368
45.0,0.061461096317945586,0.02590408143742972
45.2,0.03506739064258562,0.014968626538272934
45.400000000000006,0.13147884536784496,0.05364643860369802
45.6,0.11686521982495611,0.04800076683268464
45.800000000000004,0.060057322385315075,0.025329350286024243
46.0,0.1281995955218355,0.05238593968766741
46.2,0.015877688122218046,0.0068414219525704915
46.400000000000006,0.05497035086059182,0.023240254289087815
46.6,0.07959792245749875,0.03326204014335976
46.800000000000004,0.05412861368419194,0.022893602153291944
47.0,0.1851077072255902,0.07375782252169051
47.2,0.1035180893484787,0.042779456700061516
47.400000000000006,0.07445812973820101,0.031189496255610422
47.6,0.09413028524897553,0.039069039361000236
47.800000000000004,0.0801583904639122,0.033487443506208046
48.0,0.05011168595431755,0.02123549146440581
48.2,0.02574145279649517,0.011037906805137616
48.400000000000006,0.0926737377347551,0.03849050499308088
48.6,0.10756518200403391,0.04436929458058235
48.800000000000004,0.09920425037887937,0.041078399039096374
49.0,0.11930246952554871,0.048947461948765966
49.2,0.09311534310254209,0.038665990156493545
49.400000000000006,0.08268926425506533,0.03450383041738865
49.6,0.03058326111346462,0.01308308430680231
49.800000000000004,0.03675110241899291,0.01567450583902708
50.0,0.07312067910355952,0.030648563831483115
50.2,0.03246336191081761,0.013874649188217418
50.400000000000006,0.16926404284466096,0.06791259448246478
50.6,0.15295721232290316,0.06181319038501874
50.800000000000004,0.07864532007171027,0.03287866353565486
51.0,0.1438546125105614,0.05837082778135939
51.2,0.027051906960422426,0.011592393292329488
51.400000000000006,0.0830642065541469,0.03465420337104639
51.6,0.06797558515944566,0.028561324460582696
51.800000000000004,0.05881044658447088,0.02481821754771743
52.0,0.0994203088680709,0.0411637551400566
52.2,0.06015252554844545,0.02536835228243068
52.400000000000006,0.12252174594911905,0.05019476308669943
52.6,0.15787337809089727,0.0636610687151253
52.800000000000004,0.04330353739721456,0.01841067989187974
53.0,0.07688812067047572,0.03217058621411
53.2,0.06682697104621428,0.028093986797061075
53.400000000000006,0.09730621733812954,0.0403278399196658
53.6,0.07779164433946795,0.03253481237252468
53.800000000000004,0.08714397475129146,0.03628706322103153
54.0,0.14936402150471625,0.06045759830792343
54.2,0.0980534161200528,0.04062346740179562
54.400000000000006,0.16369989482618658,0.06584099506870156
54.6,0.03705821396524941,0.015803135650639216
54.800000000000004,0.033556781546203736,0.014334340890539386
55.0,0.05854223219477478,0.024708189557385372
55.2,0.041894289315364285,0.01782365764303437
55.400000000000006,0.08310593561226226,0.03467093585140331
55.6,0.1026516739528079,0.042438341115050904
55.800000000000004,0.118888668127632,0.04878687542624484
56.0,0.12984021174759244,0.05301702749829968
56.2,0.08445137223801256,0.035210082636810885
56.400000000000006,0.12461635564510024,0.051004395298906935
56.6,0.08288959860865602,0.034584182240210905
56.800000000000004,0.09848023177871518,0.04079224577480828
57.0,0.09157191239707699,0.0380523521646809
57.2,0.02616845908702271,0.011218661795712126
57.400000000000006,0.10298965037484267,0.042571437366588256
57.6,0.19399839008395786,0.07700374121703138
57.800000000000004,0.11742346719696081,0.048217787810906416
58.0,0.10910408976801789,0.04497230673574788
58.2,0.05039211802893508,0.021351454218719985
58.400000000000006,0.10755305662002541,0.04436453999252096
58.6,0.01067533394113074,0.004611666646685302
58.800000000000004,0.07214552188765352,0.030253735975779565
59.0,0.11552360127636027,0.04747876314129008
59.2,0.1675847672298442,0.06728842037629122
59.400000000000006,0.19916758558080172,0.07887988068607721
59.6,0.18729952159186836,0.07456029280916715
59.800000000000004,0.061254546878094035,0.02581956396327969
60.0,0.1617689198582359,0.06511975386286911
60.2,0.05656619550443427,0.023896711460949103
60.400000000000006,0.06499129100679185,0.027346056335171544
60.6,0.1691441237681288,0.06786805119528155
60.800000000000004,0.11793156686520741,0.04841521943372627
61.0,0.2508405273567825,0.09720194398301563
61.2,0.11842152441140555,0.048605516630457174
61.400000000000006,0.18888740506708807,0.07514072621371644
61.6,0.15258653515904408,0.06167354172435515
61.800000000000004,0.08899116621012075,0.03702435681568377
62.0,0.10187469210168817,0.042132208287929074
62.2,0.058592532269396466,0.024728825980931294
62.400000000000006,0.053172630752700345,0.02249956438435136
62.6,0.18815130836244806,0.074871750579971
62.800000000000004,0.05806325670081468,0.024511632930620565
63.0,0.17135180203801817,0.06868735001499773
63.2,0.0837605819266512,0.03493335099168647
63.400000000000006,0.04989049091653276,0.021144002240492014
63.6,0.0884977770090047,0.03682754643755559
63.800000000000004,0.07164823765335995,0.030052254091803083
64.0,0.03697711097384515,0.01576917038377307
64.2,0.06369067786588052,0.02681535312188081
64.4,0.12074661795075985,0.049507436980132685
64.60000000000001,0.15099220106278846,0.06107238093051233
64.8,0.0947531361521686,0.03931619799444887
65.0,0.0689673874840778,0.02896445576840765
65.2,0.04219436560402122,0.017948720918923976
65.4,0.086047820248251,0.03584894828478761
65.60000000000001,0.03285102807512,0.014037686136752405
65.8,0.03095448840605194,0.013239493731255237
66.0,0.06137865886051351,0.025870351022502642
66.2,0.10063325930829552,0.04164263233105317
66.4,0.14972123068008938,0.06059255108955749
66.60000000000001,0.10002027278532936,0.04140068904701692
66.8,0.06911015072315423,0.029022452998099964
67.0,0.11990345888037303,0.04918058598924749
67.2,0.07758605484639776,0.032451962501077875
67.4,0.0827734037208227,0.03453757960757095
67.60000000000001,0.07012213246824697,0.02943334631147989
67.8,0.039355698680695626,0.016764201587719577
68.0,0.17052119679226657,0.06837928267729337
68.2,0.2078645602603917,0.08201823889666161
68.4,0.06901427693568629,0.02898350535188653
68.60000000000001,0.09065377953886444,0.03768690870117753
68.8,0.10385412651562335,0.042911685499068715
69.0,0.10101230089653969,0.04179217108950568
69.2,0.043022760462385005,0.018293785545771463
69.4,0.03553623104487735,0.015165298466164618
69.60000000000001,0.19786136383197755,0.07840655727965976
69.8,0.09742109966209142,0.0403733059409104
70.0,0.13112598467398826,0.05351097928580901
70.2,0.1246195137593724,0.05100561487006908
70.4,0.10160583821249151,0.04202622889805982
70.60000000000001,0.08639973808006375,0.03598965223245308
70.8,0.0660718259201008,0.027786465994408188
71.0,0.02733538521528205,0.011712247073625072
71.2,0.06227083928989851,0.026235259695499124
71.4,0.10089890855088128,0.04174744115685284
71.60000000000001,0.14992855216463682,0.060670857427882995
71.8,0.09486109620353919,0.0393590242182845
72.0,0.12480721376949425,0.051078092962234214
72.2,0.0842416479413012,0.03512608540509655
72.4,0.019107545393819658,0.008220017084507963
72.60000000000001,0.15478812120416474,0.06250230783596344
72.8,0.08361666955657368,0.034875677277291475
73.0,0.12548243502739037,0.05133872152205159
73.2,0.13534756700112519,0.055128833620334564
73.4,0.26189187931706626,0.10102214553604112
73.60000000000001,0.19453040400520152,0.07719720818689549
73.8,0.05506610029619378,0.023279669202070037
74.0,0.02145658485538799,0.009219912467802589
74.2,0.08625223798714016,0.03593068422723089
74.4,0.15467957265331414,0.06246148281224635
74.60000000000001,0.21161014473733852,0.08336290099706906
74.8,0.07780139199520106,0.032538740157616784
75.0,0.20551406643813322,0.08117228227118305
75.2,0.18989889676843974,0.07551006186234047
75.4,0.22798820549530316,0.08919419554056769
75.60000000000001,0.060564878088026124,0.02553724082409915
75.8,0.020158116665164306,0.008667489284764802
76.0,0.04705858824836072,0.019970983341763206
76.2,0.32188175029562105,0.1211926068205485
76.4,0.06308305697654211,0.02656719658112094
76.60000000000001,0.11984934477522714,0.04915960022936876
76.80000000000001,0.13770718196843326,0.0560304996521657
77.0,0.19710227822542206,0.07813125731646269
77.2,0.0653725243810504,0.027501492276515747
77.4,0.04972147648034802,0.02107408261887108
77.60000000000001,0.05150070597376284,0.021809568606178855
77.80000000000001,0.09555086289907264,0.03963254525922644
78.0,0.07602966227490067,0.03182424343515746
78.2,0.03533611513473671,0.015081363562165297
78.4,0.10521911513252469,0.043448387577071035
78.60000000000001,0.08283735270407944,0.03456322843710075
78.80000000000001,0.02153593554067628,0.009253648827019999
79.0,0.12513911246077167,0.051206222037615094
79.2,0.1658737035596533,0.06665150683989172
79.4,0.015252247908542379,0.006573959751037867
