Frequency (Hz),Power,Log Power
0.0,0.0018648660741784617,0.0008091468045726552
0.2,0.0018648547245640839,0.0008091418846726937
0.4,0.0018648255489630645,0.000809129237455192
0.6000000000000001,0.0018647756329571163,0.0008091075995595901
0.8,0.001864707131045387,0.0008090779049301439
1.0,0.001864615057016462,0.0008090379921113699
1.2000000000000002,0.0018645059714580924,0.0008089907050249513
1.4000000000000001,0.0018643816460423184,0.000808936811664078
1.6,0.0018642404654612642,0.0008088756118122602
1.8,0.001864081736979972,0.0008088068051753894
2.0,0.0018639135664004075,0.0008087339055055239
2.2,0.0018637313726671157,0.0008086549269744174
2.4000000000000004,0.001863538410296144,0.0008085712803682237
2.6,0.0018633404046960198,0.000808485447572911
2.8000000000000003,0.0018631327867403922,0.0008083954479311219
3.0,0.0018629278046740543,0.0008083065908941333
3.2,0.0018627164514334203,0.0008082149720176412
3.4000000000000004,0.0018625084160339954,0.0008081247913632704
3.6,0.0018623033878943103,0.0008080359142987866
3.8000000000000003,0.001862108823919204,0.0008079515732983263
4.0,0.00186192477816954,0.0008078717917992832
4.2,0.0018617552750822158,0.0008077983143470458
4.4,0.0018616048696698932,0.0008077331154858358
4.6000000000000005,0.0018614760372602191,0.000807677268243145
4.800000000000001,0.0018613698862026769,0.0008076312530783091
5.0,0.0018612977306113837,0.0008075999745230103
5.2,0.0018612554866023155,0.0008075816622671037
5.4,0.0018612542808541296,0.0008075811395901628
5.6000000000000005,0.0018613005957671025,0.0008076012165325556
5.800000000000001,0.001861388857610803,0.0008076394769484717
6.0,0.0018615384417735661,0.0008077043198222218
6.2,0.0018617328529212098,0.0008077885946218845
6.4,0.0018620065105799753,0.000807907221764732
6.6000000000000005,0.0018623355615334945,0.0008080498611591948
6.800000000000001,0.0018627466163718832,0.0008082280481267184
7.0,0.0018632245652160293,0.0008084352326904677
7.2,0.0018638138597857066,0.0008086906840318685
7.4,0.0018644717086848687,0.0008089758525837896
7.6000000000000005,0.0018652336262942053,0.0008093061332724149
7.800000000000001,0.0018660812934897584,0.0008096735849190258
8.0,0.0018670633582320785,0.0008100992955976609
8.200000000000001,0.001868206149777532,0.0008105946784655309
8.4,0.001869375964135293,0.0008111017747290239
8.6,0.0018707592478198877,0.0008117014058494658
8.8,0.001872120077979164,0.0008122913029216469
9.0,0.001874131315574089,0.0008131631392518803
9.200000000000001,0.0018744511048657412,0.0008133017621569509
9.4,0.0018763311433126152,0.00081411672410771
9.600000000000001,0.0018813578972161512,0.0008162957215924367
9.8,0.001882737657448366,0.0008168938182012764
10.0,0.001885662683986095,0.0008181617520448339
10.200000000000001,0.0018873279819586427,0.0008188836199646105
10.4,0.0018910931339517852,0.0008205157213156274
10.600000000000001,0.0018937352273628181,0.0008216610005620832
10.8,0.0018972827652366459,0.0008231987618446227
11.0,0.0018974022240318739,0.0008232505438919575
11.200000000000001,0.0019039676099719416,0.000826096445614802
11.4,0.0019064828801181836,0.0008271867363104198
11.600000000000001,0.00191333133765527,0.0008301553139209433
11.8,0.0019173770685889425,0.0008319089936228853
12.0,0.0019218682247925396,0.0008338557409592038
12.200000000000001,0.001927788797713047,0.0008364220733584625
12.4,0.0019324851263965396,0.0008384577338872834
12.600000000000001,0.0019380523018478696,0.0008408708574231924
12.8,0.0019451938718986368,0.0008439663915278497
13.0,0.0019499501865811552,0.0008460280175834409
13.200000000000001,0.001959089964067617,0.0008499896294616888
13.4,0.0019618117924091283,0.0008511693916253648
13.600000000000001,0.0019724354076283675,0.0008557741110406867
13.8,0.0019815924616991606,0.0008597431223036689
14.0,0.0019881686162611404,0.0008625934523773138
14.200000000000001,0.00199358678047989,0.0008649418558155753
14.4,0.001993124108245629,0.0008647413195573301
14.600000000000001,0.0020111835225987283,0.0008725687518340857
14.8,0.0020191705462172405,0.0008760304960909168
15.0,0.0020276676311601458,0.000879713281375899
15.200000000000001,0.0020408163417609533,0.0008854121010557691
15.4,0.0020500850529377285,0.0008894292343261837
15.600000000000001,0.0020676450193323507,0.0008970397617851303
15.8,0.0020781817449917203,0.0009016063374804722
16.0,0.0020866960229574344,0.000905296357177921
16.2,0.002112443947657703,0.0009164551102133099
16.400000000000002,0.0021124192995726912,0.0009164444282509606
16.6,0.002124476727313031,0.0009216698328365941
16.8,0.002142523492656194,0.0009294907574979471
17.0,0.0021770618480909444,0.0009444582480024782
17.2,0.0021715735476848506,0.0009420798807470727
17.400000000000002,0.002210924745127936,0.0009591325220693191
17.6,0.0021360103001873175,0.0009266681522550711
17.8,0.002184824927015256,0.0009478223733749385
18.0,0.0023573925061211873,0.0010225976980295169
18.2,0.002214941437116343,0.0009608730974585873
18.400000000000002,0.002227754860627393,0.0009664255626255133
18.6,0.0022958380399361452,0.000995926985507542
18.8,0.0021405708096557934,0.0009286445302814491
19.0,0.002218613354599716,0.0009624642636981867
19.200000000000003,0.0023839059479115266,0.001034085106879155
19.400000000000002,0.0026936080262212505,0.001168246408650348
19.6,0.002750983182142843,0.0011930964730511692
19.8,0.004073979809556696,0.0017657126490465277
20.0,0.0015886063533143066,0.0006893755448403668
20.200000000000003,0.002939811596650621,0.0012748709309117938
20.400000000000002,0.002889122105679635,0.0012529207377981813
20.6,0.0028647640633420574,0.0012423725210397416
20.8,0.001386348572258415,0.0006016665714284834
21.0,0.0019033864023900453,0.0008258445099732564
21.200000000000003,0.0027815533935479485,0.0012063363222012428
21.400000000000002,0.0020825675805036872,0.0009035071272868666
21.6,0.002429578211206199,0.0010538726951860586
21.8,0.0027981653425893766,0.0012135307286216207
22.0,0.0024354232987666914,0.0010564050245666621
22.200000000000003,0.002468855404331524,0.0010708888870839814
22.400000000000002,0.002474993477820623,0.0010735480452916289
22.6,0.002808518075776218,0.0012180142945498993
22.8,0.0027570224155089194,0.0011957120754007924
23.0,0.002980852633102074,0.001292642217665869
23.200000000000003,0.002831461314119631,0.0012279503966543203
23.400000000000002,0.0015854771323296616,0.0006880186948116557
23.6,0.0032779979987217476,0.001421288223154806
23.8,0.002640570162718388,0.0011452736276474304
24.0,0.0015718653271186145,0.0006821164805755013
24.200000000000003,0.0023409166505530335,0.001015459094554541
24.400000000000002,0.0023023000464924416,0.0009987269619577952
24.6,0.003440753024850987,0.0014917351752939104
24.8,0.003713474176786562,0.0016097542995920182
25.0,0.0032164808388401864,0.00139465813434168
25.200000000000003,0.003370469801646048,0.0014613151580311478
25.400000000000002,0.0023982736275263788,0.0010403100265119222
25.6,0.0034800421595093584,0.0015087393883390816
25.8,0.002584328776487185,0.0011209119476043939
26.0,0.005169550916242508,0.0022393242606251642
26.200000000000003,0.002869736605470404,0.0012445258943866399
26.400000000000002,0.0031368097420318647,0.001360166982766687
26.6,0.0037393355518504736,0.0016209440545201204
26.8,0.0020338068829806855,0.0008823741210981926
27.0,0.003888458923971553,0.0016854614495595052
27.200000000000003,0.0034036694035259655,0.0014756848906457363
27.400000000000002,0.002297337017117551,0.0009965764913788787
27.6,0.002977040975650535,0.001290991752515587
27.8,0.00433846813765188,0.0018800973434861966
28.0,0.004500044768504935,0.001949960439881885
28.200000000000003,0.0035135418849465937,0.0015232374375801598
28.400000000000002,0.0012921523722178641,0.0005608123954788197
28.6,0.0035269492399367225,0.001529039752296786
28.8,0.003186598869810753,0.001381721975710259
29.0,0.005792291802303022,0.0025083029487053014
29.200000000000003,0.004590377786922594,0.001989014064366331
29.400000000000002,0.008262101051174779,0.003573443065684322
29.6,0.005599082833521692,0.0024248685755523416
29.8,0.005654572699430527,0.0024488326762569838
30.0,0.0045878124605229715,0.0019879050466545083
30.200000000000003,0.003513286264897493,0.0015231268118772615
30.400000000000002,0.006313128887701447,0.002733138759876247
30.6,0.005016802226032692,0.002173322505812606
30.8,0.006304344739517299,0.002729347769154344
31.0,0.003956739242473265,0.0017149993497785022
31.200000000000003,0.004912726148621053,0.002128346136720764
31.400000000000002,0.0053341513416736985,0.002310435849788749
31.6,0.0032653059351196835,0.0014157941048115541
31.8,0.006438937272597734,0.002787430481472147
32.0,0.009578194375090212,0.004139961784327291
32.2,0.0026581202071364537,0.001152875375441677
32.4,0.006953509553673861,0.003009419897822381
32.6,0.008668901819787423,0.0037486313405302794
32.800000000000004,0.011577359668347857,0.00499910074241799
33.0,0.009892968270643246,0.00427534828503266
33.2,0.01647839517466046,0.007098152323648103
33.4,0.004238806558636229,0.0018369996997907878
33.6,0.0051738881714579795,0.0022411982150650316
33.800000000000004,0.006282276566085765,0.0027198236216260598
34.0,0.002129143707753857,0.0009236923751256656
34.2,0.008426419417398898,0.00364421508541876
34.4,0.0018064677413750865,0.0007838312018907445
34.6,0.011053843718288646,0.004774284579198921
34.800000000000004,0.002717184688296553,0.0011784579964992557
35.0,0.007813696624394545,0.003380256309861615
35.2,0.008379712049203689,0.003624099366849182
35.4,0.0011266559026667853,0.0004890250117735704
35.6,0.01030878781551287,0.004454130563397296
35.800000000000004,0.0034141944003182453,0.0014802403095618656
36.0,0.006092945302296293,0.0026381037490450197
36.2,0.006511318750197984,0.002818663122451014
36.4,0.006279148391645936,0.0027184735521268155
36.6,0.010234335372470446,0.004422125025063532
36.800000000000004,0.015815590003079878,0.0068148737813706
37.0,0.004637815769534376,0.002009521495180664
37.2,0.01195186776772163,0.005159856318011291
37.4,0.01531111528719785,0.006599140721190999
37.6,0.004998150415622948,0.002165262487823154
37.800000000000004,0.016055654481491,0.006917497093790659
38.0,0.010465596885606967,0.004521531768110213
38.2,0.036114999548379045,0.01540796090875898
38.400000000000006,0.022203834978967423,0.009537505955042404
38.6,0.018428810880261673,0.007930676809512644
38.800000000000004,0.015010387421400238,0.006470486758307469
39.0,0.013291334090962711,0.0057343284773707535
39.2,0.012725259098308581,0.0054916421609044475
39.400000000000006,0.008209903112301548,0.0035509589679357536
39.6,0.008037053273269291,0.003476496133672562
39.800000000000004,0.017542219559757127,0.007552437888840464
40.0,0.02169470696044983,0.009321143460465739
40.2,0.015389641588931862,0.006632728672964656
40.400000000000006,0.012715101891391618,0.0054872863487061265
40.6,0.012909315223488595,0.0055705651421365625
40.800000000000004,0.008884872912894665,0.0038416103287684674
41.0,0.03986760532228254,0.016978048973668752
41.2,0.014706337959516504,0.0063403730307530016
41.400000000000006,0.020262127164260603,0.00871176564008257
41.6,0.017482172946870007,0.0075268087978698425
41.800000000000004,0.0435134584779048,0.01849805465206875
42.0,0.0357377068517466,0.015249787369187357
42.2,0.012306100185196825,0.0053118539272355445
42.400000000000006,0.01477274699865636,0.0063687951805262745
42.6,0.0213249968527183,0.009163961362667394
42.800000000000004,0.04981862812613656,0.02111427468151504
43.0,0.0526937243662329,0.02230203389617866
43.2,0.011552070446688838,0.004988243335812934
43.400000000000006,0.023760646196613788,0.010198431066791825
43.6,0.00905047441858907,0.003912890927896162
43.800000000000004,0.009675162639081913,0.004181673025620952
44.0,0.015535775555441902,0.0066952274480036045
44.2,0.011938529820097835,0.005154132097905328
44.400000000000006,0.03275265012556566,0.013996318084288547
44.6,0.041861486024046976,0.01780998397880065
44.800000000000004,0.00634098942672773,0.0027451623641832406
45.0,0.007003949870488522,0.003031174032856501
45.2,0.05396171272242723,0.022824834543135764
45.400000000000006,0.07107286511324332,0.029819016901116307
45.6,0.06429618452341626,0.02706250521841705
45.800000000000004,0.023620675948685194,0.010139049547830802
46.0,0.0377910876591109,0.016109936741362886
46.2,0.0625470436663251,0.026348167289319213
46.400000000000006,0.08669232434374576,0.036106599510263196
46.6,0.06839446281534471,0.02873162853037918
46.800000000000004,0.0655452453427042,0.027571895519461393
47.0,0.030209181395883977,0.012925416066594914
47.2,0.05827440105255699,0.024598290961596884
47.400000000000006,0.0793516710633074,0.03316296824057606
47.6,0.20937175821749823,0.0825598225521205
47.800000000000004,0.10548509558336443,0.043552891691272494
48.0,0.04608237071357662,0.019565883133467323
48.2,0.031884643605964935,0.013631149378799248
48.400000000000006,0.01359021997817164,0.00586241143536493
48.6,0.06848239762348245,0.028767371911450894
48.800000000000004,0.02865650650125417,0.01227037744923767
49.0,0.03971815612938691,0.016915627927021525
49.2,0.03007686949194493,0.012869635142557578
49.400000000000006,0.01259947901461212,0.005437699605100951
49.6,0.061233113872201046,0.025810792900566475
49.800000000000004,0.06053005681538829,0.02552298150330031
50.0,0.07815558678713347,0.03268143766647521
50.2,0.037455519116971044,0.015969485416738566
50.400000000000006,0.03895083637579479,0.01659499703179167
50.6,0.0695971456387277,0.029220235283280983
50.800000000000004,0.12164540551148544,0.049855581724535455
51.0,0.056149705824351324,0.023725482407332375
51.2,0.07203205299883213,0.030207770648181715
51.400000000000006,0.07529612685009027,0.03152808150447107
51.6,0.05362412262625575,0.022685705199308
51.800000000000004,0.15311631732853154,0.061873117724896495
52.0,0.05017504713672751,0.021261694945542253
52.2,0.2431272148396768,0.09451557423767563
52.400000000000006,0.19256418054490382,0.07648176088318095
52.6,0.07062102739781623,0.029635768837400715
52.800000000000004,0.025263683695994254,0.010835574315537607
53.0,0.037319379794127444,0.01591249170932779
53.2,0.057702804836913826,0.024363656025381313
53.400000000000006,0.0412193613066027,0.017542235148341124
53.6,0.033745236348961836,0.014413521271968216
53.800000000000004,0.011795123484633704,0.005092581922896281
54.0,0.033391365381405406,0.014264828428071776
54.2,0.09080110426005024,0.03774556892287764
54.400000000000006,0.09630333836306017,0.03993073658456898
54.6,0.06593672362462914,0.02773142476907458
54.800000000000004,0.011609512665584234,0.005012904577811029
55.0,0.08959056051942037,0.037263332149395076
55.2,0.11581222546771686,0.04759111547557046
55.400000000000006,0.07957868164064866,0.03325429998855294
55.6,0.07578035443641944,0.031723609068562676
55.800000000000004,0.08677505898048983,0.03613966298891784
56.0,0.056255450915644184,0.023768963185182783
56.2,0.15185264996607792,0.061396925788913675
56.400000000000006,0.08942936590740679,0.03719907763773259
56.6,0.11714772766750337,0.04811060648057422
56.800000000000004,0.11544505869370483,0.047448183948612166
57.0,0.21952006898299237,0.08618895165824027
57.2,0.19407810995940405,0.07703273685600398
57.400000000000006,0.052242795745863504,0.022115961002594213
57.6,0.03780242204029038,0.016114679923666206
57.800000000000004,0.05846074718857265,0.02467475692747079
58.0,0.02024169053054381,0.00870306630105145
58.2,0.04847616984918979,0.020558564109316602
58.400000000000006,0.059051458593160584,0.02491706269493145
58.6,0.06755506429262993,0.02839028510379269
58.800000000000004,0.11715084841563701,0.04811181967894294
59.0,0.08957894429512656,0.037258702071651925
59.2,0.024450923159983675,0.010491158138556504
59.400000000000006,0.16482565053297665,0.06626092563849618
59.6,0.146376675323907,0.059327341135649664
59.800000000000004,0.202468765600514,0.080073804294504
60.0,0.19302036126822472,0.07664785583377373
60.2,0.029406047605943193,0.012586715336508309
60.400000000000006,0.0892769716648187,0.03713832233758369
60.6,0.10110882154550309,0.04183024200652669
60.800000000000004,0.17963344376580184,0.07174707672907271
61.0,0.07818061731906488,0.03269152015906304
61.2,0.18997415807978604,0.07553753019487422
61.400000000000006,0.0872314925697402,0.03632202360962333
61.6,0.15400426375154747,0.06220741343006658
61.800000000000004,0.22021213647655516,0.08643534025855307
62.0,0.15634839235770448,0.06308870093842661
62.2,0.13413294425282907,0.05466396599540533
62.400000000000006,0.018335121882556135,0.007890722631129166
62.6,0.031138202389549688,0.01331687722604065
62.800000000000004,0.0766961265843322,0.032093150680768456
63.0,0.044208733138801,0.018787321069803836
63.2,0.08769551467894199,0.036507337639835366
63.400000000000006,0.03913004673206773,0.016669902748556387
63.6,0.008546123338273965,0.0036957643765045574
63.800000000000004,0.04486295639689529,0.019059332376677146
64.0,0.07725113391230637,0.032316959898115664
64.2,0.07969252905977763,0.0333000962791786
64.4,0.10050487289244951,0.04159196989310732
64.60000000000001,0.09040049598641846,0.037586040372577914
64.8,0.06363188160380367,0.026791346520653986
65.0,0.03080069140838686,0.013174701181492741
65.2,0.14207562126139064,0.05769486118585185
65.4,0.19117011166801956,0.07597378774907307
65.60000000000001,0.022640949188743126,0.009723179013093958
65.8,0.1651439121890219,0.06637957034879019
66.0,0.07991912444591709,0.03339123222579792
66.2,0.08074592861874118,0.03372360813652904
66.4,0.1447265890691196,0.05870177048576901
66.60000000000001,0.12432195305114178,0.05089069060345114
66.8,0.19972523699784617,0.07908179461514557
67.0,0.1410243112643775,0.057294897823549094
67.2,0.10611274315894793,0.043799395717636525
67.4,0.007077090896811406,0.003062716700210749
67.60000000000001,0.0482544513418513,0.02046671528175747
67.8,0.08320357042969176,0.034710082854508564
68.0,0.050829794982772486,0.021532378172996115
68.2,0.052831789012945975,0.02235898947702376
68.4,0.10829260387345041,0.04465443500544648
68.60000000000001,0.07906100011051544,0.033045996362773326
68.8,0.10236394030919092,0.04232499848511055
69.0,0.09613886091761539,0.039865574869371506
69.2,0.06661937390125397,0.02800946787300821
69.4,0.013991995145410274,0.0060345265181268705
69.60000000000001,0.10292218328401069,0.042544871857649526
69.8,0.1391834859881103,0.0565936806500309
70.0,0.10192453623959119,0.042151853484072035
70.2,0.0657284017185412,0.027646539902792366
70.4,0.079632251252479,0.033275849515248944
70.60000000000001,0.13303500850064837,0.05424332889584422
70.8,0.04796567679830487,0.020347058772513867
71.0,0.06020771305756306,0.025390959413284044
71.2,0.09491704656688128,0.039381217273910245
71.4,0.3018317841409584,0.11455487060770862
71.60000000000001,0.2082681593144552,0.08216333096241732
71.8,0.11465123677645223,0.04713900223880197
72.0,0.04131855575990573,0.017583607363832986
72.2,0.046503302199545474,0.019740603075831052
72.4,0.06351379359656577,0.02674312700228906
72.60000000000001,0.0576918888100505,0.024359173863971597
72.8,0.04719557974758024,0.0200278003730221
73.0,0.10738650131594421,0.04429922529860863
73.2,0.04176698062365843,0.017770588112806414
73.4,0.07200438283741821,0.030196560952100767
73.60000000000001,0.0748422300252192,0.031344721314004446
73.8,0.02914428198686012,0.012476265411725558
74.0,0.06946701686253756,0.029167395157681547
74.2,0.07380473912989476,0.03092531634673897
74.4,0.15699484042354608,0.06333142223560506
74.60000000000001,0.1134930608740285,0.0466875149187693
74.8,0.09575334033715903,0.03971280324822791
75.0,0.1591914636924454,0.06415517432223053
75.2,0.1500379295036033,0.060712164094891316
75.4,0.10254179256822589,0.042395060668458086
75.60000000000001,0.051280789358193635,0.021718728380334396
75.8,0.07027389011412769,0.029494930716989616
76.0,0.3387914014794583,0.12671291439531845
76.2,0.4491497370939189,0.16111326237511836
76.4,0.29588754163696757,0.11256731467837036
76.60000000000001,0.12798082150645856,0.0523017156183131
76.80000000000001,0.09130432522208362,0.037945876467976605
77.0,0.12241350184299474,0.05015288230811488
77.2,0.16264133443886922,0.06544575901225426
