Frequency (Hz),Power,Log Power
0.0,0.35178090716087396,0.13090630808377687
0.1,0.3517818793655587,0.13090662042949489
0.2,0.35178474765777723,0.13090754194070942
0.30000000000000004,0.3517895299593758,0.1309090783713614
0.4,0.3517962293530254,0.13091123070530097
0.5,0.35180483894602216,0.13091399671895126
0.6000000000000001,0.3518153612310228,0.13091737720139662
0.7000000000000001,0.351827782022073,0.13092136758084255
0.8,0.3518421294733366,0.13092597688531918
0.9,0.35185837725703295,0.13093119663712605
1.0,0.3518765351000793,0.13093702993905393
1.1,0.3518965942502186,0.13094347395473172
1.2000000000000002,0.3519185516798102,0.13095052768436483
1.3,0.35194240520979736,0.13095819039824902
1.4000000000000001,0.35196816003983095,0.13096646373443846
1.5,0.3519958089559649,0.13097534534073624
1.6,0.3520253524368848,0.1309848353335835
1.7000000000000002,0.3520567688111551,0.13099492671200755
1.8,0.35209008219438376,0.13100562718007205
1.9000000000000001,0.3521252768827456,0.13101693164877676
2.0,0.3521623323917773,0.13102883349164463
2.1,0.35220126310507893,0.13104133727922174
2.2,0.3522420736228477,0.131054444436936
2.3000000000000003,0.3522847405331479,0.13106814739126266
2.4000000000000004,0.35232926341733234,0.13108244595134788
2.5,0.35237563777056136,0.13109733861169123
2.6,0.35242387047267254,0.1311128275204348
2.7,0.35247393738519506,0.13112890486263512
2.8000000000000003,0.3525258455618883,0.13114557283787742
2.9000000000000004,0.3525795754265967,0.13116282509250546
3.0,0.3526351468679467,0.1311806679425641
3.1,0.3526925356343864,0.13119909352904882
3.2,0.3527517395408608,0.13121810107625945
3.3000000000000003,0.3528127391449879,0.13123768426615118
3.4000000000000004,0.35287554287976036,0.13125784572794308
3.5,0.35294014358906156,0.13127858308394424
3.6,0.35300653277174365,0.13129989352287832
3.7,0.3530746910069902,0.1313217707268661
3.8000000000000003,0.3531446314506728,0.1313442188326112
3.9000000000000004,0.35321632946545517,0.13136722984454963
4.0,0.353289792816663,0.13139080616517707
4.1000000000000005,0.35336499499034263,0.13141493919404482
4.2,0.35344193647658845,0.13143962899554232
4.3,0.3535206088704263,0.1314648727777958
4.4,0.3536010052550878,0.13149066822492422
4.5,0.35368312536265556,0.13151701515259068
4.6000000000000005,0.3537669392681648,0.13154390386027662
4.7,0.35385246038856233,0.1315713385512024
4.800000000000001,0.3539396562004339,0.13159930868947267
4.9,0.35402853897329695,0.13162781810688257
5.0,0.3541190790322104,0.13165685717973855
5.1000000000000005,0.3542112636676914,0.13168642172575418
5.2,0.3543051398365938,0.1317165266954712
5.300000000000001,0.35440062976929665,0.13174714703920345
5.4,0.35449772476166275,0.13177827985697974
5.5,0.35459649403518356,0.13180994723140552
5.6000000000000005,0.35469682176327294,0.1318421119132116
5.7,0.3547987532322472,0.13187478830872762
5.800000000000001,0.35490228866985235,0.13190797637527804
5.9,0.3550073783976492,0.1319416600729042
6.0,0.3551140445368854,0.13197584637563445
6.1000000000000005,0.3552222429916558,0.13201052103360839
6.2,0.35533202371460043,0.13204569993617152
6.300000000000001,0.3554432758905276,0.13208134745453204
6.4,0.3555560938834135,0.13211749370550085
6.5,0.3556703450051658,0.13215409605714948
6.6000000000000005,0.35578616728195067,0.132191198607378
6.7,0.35590340745355104,0.13222875213864463
6.800000000000001,0.35602214255955217,0.13226678120723556
6.9,0.3561423607183455,0.1323052818829576
7.0,0.356263934407022,0.132344213205501
7.1000000000000005,0.35638700261635686,0.13238361956148956
7.2,0.3565114790081357,0.13242347317966277
7.300000000000001,0.35663738305229714,0.13246378016939891
7.4,0.3567646075203549,0.13250450608076264
7.5,0.35689329967564537,0.13254569792944815
7.6000000000000005,0.35702330089209366,0.13258730481668682
7.7,0.35715463650920837,0.13262933473156363
7.800000000000001,0.3572873033055022,0.13267178652009734
7.9,0.35742124981828277,0.1327146435931714
8.0,0.3575566393802617,0.13275795808199836
8.1,0.35769322138369486,0.13280164968572541
8.200000000000001,0.35783136258348863,0.1328458355945549
8.3,0.3579703395810721,0.13289028430608385
8.4,0.35811079078916813,0.13293519988980856
8.5,0.35825271834028527,0.13298058288227566
8.6,0.35839553344849967,0.13302624489497544
8.700000000000001,0.3585399459127911,0.1330724127461411
8.8,0.3586855342361724,0.13311895154536585
8.9,0.3588292019585844,0.13316487151650583
9.0,0.3589765919351844,0.133211976172572
9.1,0.35912599506527854,0.13325971900270256
9.200000000000001,0.3592756546527785,0.1333075385242126
9.3,0.35942694596194663,0.13335587406542596
9.4,0.35958101955078603,0.13340509297935366
9.5,0.35973418628188203,0.13345401666871026
9.600000000000001,0.35988924201514916,0.13350353811989188
9.700000000000001,0.3600442007713969,0.13355302295784793
9.8,0.36019861080818744,0.13360232695873725
9.9,0.3603556552097885,0.13365246638654193
10.0,0.36051199891361707,0.13370237635391935
10.100000000000001,0.3606689391166136,0.13375247097517237
10.200000000000001,0.36083907751740196,0.1338067718761926
10.3,0.36100491901647785,0.13385969485642227
10.4,0.3611506235774172,0.13390618645903227
10.5,0.36131915728064473,0.13395995620732082
10.600000000000001,0.36151348008307815,0.13402194556339803
10.700000000000001,0.3616327552982158,0.13405999020978696
10.8,0.36181238786519904,0.1341172804643162
10.9,0.36197481879228616,0.13416907809023615
11.0,0.3621444304305295,0.13422315898164486
11.100000000000001,0.3623201810068438,0.13427919017784395
11.200000000000001,0.3624813942918518,0.13433058037139414
11.3,0.36265676667992885,0.1343864771781072
11.4,0.362825433663566,0.13444022997117785
11.5,0.36299551819609743,0.13449442778925608
11.600000000000001,0.363171064866582,0.1345503590378357
11.700000000000001,0.363339609505277,0.13460405257905003
11.8,0.36351129506505975,0.13465873990442578
11.9,0.36368952607033134,0.13471550487868345
12.0,0.363858997268967,0.13476947305257583
12.100000000000001,0.3640405574672183,0.1348272835333271
12.200000000000001,0.36420233136948976,0.13487878738838507
12.3,0.36439542897424854,0.13494025575545207
12.4,0.3645698087412651,0.13499575823648569
12.5,0.3647514493232499,0.135053564185367
12.600000000000001,0.3649243426573666,0.13510857923241826
12.700000000000001,0.3651013873263241,0.13516490802232076
12.8,0.36529576825463805,0.135226744128855
12.9,0.36548336591563935,0.13528641400702238
13.0,0.3656730853108368,0.13534675041619423
13.100000000000001,0.36582314341592537,0.13539446741934072
13.200000000000001,0.36599327092500183,0.1354485599550759
13.3,0.3661900741813713,0.13551112571850665
13.4,0.3663704093231947,0.13556844818772457
13.5,0.36656337262317834,0.13562977634509563
13.600000000000001,0.36674103151413673,0.1356862327544119
13.700000000000001,0.36692452408179327,0.13574453528491717
13.8,0.3670797513834238,0.1357938507605485
13.9,0.3672973351650183,0.135862967369492
14.0,0.36747402137352375,0.13591908456210897
14.100000000000001,0.3676527268979561,0.13597583573337085
14.200000000000001,0.3678179687174588,0.13602830466355675
14.3,0.3680356060690395,0.13609740097917689
14.4,0.36819288788537996,0.13614732855296433
14.5,0.36843798997308735,0.13622512237261328
14.600000000000001,0.3685650538371807,0.1362654461385583
14.700000000000001,0.36872866350969274,0.13631736221726937
14.8,0.36891759736076896,0.13637730635999534
14.9,0.36914729389762935,0.1364501723749851
15.0,0.36929710862690135,0.13649769111243737
15.100000000000001,0.36950102752842034,0.1365623624386516
15.200000000000001,0.36968924485888366,0.13662204558587318
15.3,0.3698844550794239,0.13668393749390045
15.4,0.3701085408124567,0.13675497358610383
15.5,0.37027087106880463,0.13680642568383505
15.600000000000001,0.3703834930574783,0.1368421186985323
15.700000000000001,0.37065564492029074,0.13692835902323974
15.8,0.3708170372865177,0.13697949344789373
15.9,0.3709841871964073,0.13703244570639986
16.0,0.3712550492868745,0.13711823976117396
16.1,0.37138376280221763,0.1371590031086877
16.2,0.3715712742673782,0.1372183808189594
16.3,0.3717695397078605,0.1372811550732298
16.400000000000002,0.37189706124404404,0.13732152579429993
16.5,0.3721124980910194,0.13738972018794843
16.6,0.37224368670955893,0.1374312413968055
16.7,0.372489205524936,0.13750893745772844
16.8,0.3725935137432388,0.1375419422800093
16.900000000000002,0.3729619444469456,0.13765849969433266
17.0,0.3730888072899144,0.13769862701729946
17.1,0.3732921590043858,0.13776294040187778
17.2,0.37342206192354094,0.1378040193904266
17.3,0.3735392855455243,0.13784108549057678
17.400000000000002,0.3738189951706792,0.13792951687428995
17.5,0.37396623528280054,0.13797606022677736
17.6,0.3741148969137655,0.1380230478686671
17.7,0.37432985095007437,0.13809097963414618
17.8,0.3743441753687021,0.13809550619197514
17.900000000000002,0.3746525120975267,0.13819293005652092
18.0,0.3748557486590918,0.1382571339133554
18.1,0.3749850856839084,0.13829798744605706
18.2,0.3751346177895473,0.1383452151855102
18.3,0.37536270908304636,0.13841724491584015
18.400000000000002,0.3755859602859233,0.13848773461038089
18.5,0.37567741769533886,0.1385166082170089
18.6,0.37578801192453626,0.13855152085881758
18.7,0.3760539326461112,0.13863545584105091
18.8,0.37608346626342143,0.13864477680521062
18.900000000000002,0.3762565396786788,0.13869939565981962
19.0,0.37647542359529185,0.13876846164853993
19.1,0.3770446856243664,0.1389480335068885
19.200000000000003,0.37702787446217284,0.13894273154420175
19.3,0.37676788523270427,0.1388607269963696
19.400000000000002,0.376928485085483,0.13891138445496753
19.5,0.3773384344550868,0.13904066658745096
19.6,0.37705383420154925,0.13895091878972005
19.700000000000003,0.3771762028170175,0.13898950962184134
19.8,0.37694124079271074,0.1389154076904966
19.900000000000002,0.38018643982661987,0.13993775619749582
20.0,0.3798670574047515,0.13983724653404722
20.1,0.3764593231238306,0.13876338172725228
20.200000000000003,0.37656307812189216,0.13879611682096518
20.3,0.3795170310662326,0.1397270665059822
20.400000000000002,0.3818174295203987,0.14045066634526368
20.5,0.38099787787731554,0.14019301121666178
20.6,0.37895931562621804,0.13955145307963449
20.700000000000003,0.37628573891787026,0.1387086097369698
20.8,0.3817109980297538,0.14041721446639038
20.900000000000002,0.38141759160452804,0.14032498221025327
21.0,0.3800384062148478,0.139891172904919
21.1,0.38223725459336294,0.14058259406362833
21.200000000000003,0.37890847989321,0.13953544239314164
21.3,0.3798870942348859,0.1398435528093777
21.400000000000002,0.3821809625776259,0.1405649069339015
21.5,0.381843516130902,0.14045886508687222
21.6,0.3822616631780668,0.14059026309441008
21.700000000000003,0.3797170185469956,0.1397900212665683
21.8,0.3794776371997234,0.1397146644966244
21.900000000000002,0.3812276197614493,0.14026525414748453
22.0,0.3808377442968932,0.1401426496890861
22.1,0.38283891046734403,0.14077159126630948
22.200000000000003,0.3775174303552894,0.13909710288442287
22.3,0.3826304214424014,0.1407061082524885
22.400000000000002,0.38340604903659237,0.14094967032883352
22.5,0.3849771408197719,0.14144260538764314
22.6,0.38154153673794944,0.14036394672984223
22.700000000000003,0.38164524079842305,0.14039654539570287
22.8,0.38330831107113555,0.14091898623675658
22.900000000000002,0.38090746986887314,0.14016457888878897
23.0,0.38310375711539024,0.1408547610582915
23.1,0.3830852570090124,0.14084895198734693
23.200000000000003,0.3837136688602443,0.1410462310895569
23.3,0.3836758346702153,0.14103435623064248
23.400000000000002,0.38211503028476473,0.1405441898825812
23.5,0.3842735378393697,0.14122191688098712
23.6,0.38391467834919446,0.14110931565226761
23.700000000000003,0.38654917784186416,0.14193527765466257
23.8,0.38399719499454443,0.1411352099186974
23.900000000000002,0.3868180524880059,0.14201948631930086
24.0,0.38083619817784203,0.140142163410846
24.1,0.3823556073796811,0.14061977853498706
24.200000000000003,0.38359009388819076,0.14100744392840586
24.3,0.3858578690847437,0.14171869215358027
24.400000000000002,0.3872528210561342,0.14215561664919965
24.5,0.3841242016256804,0.14117506241878905
24.6,0.382160426281251,0.14055845418517046
24.700000000000003,0.3824123845397101,0.1406376158416791
24.8,0.386663778134851,0.14197117123780031
24.900000000000002,0.382321264221609,0.14060898881543907
25.0,0.37994492636974153,0.13986175404543888
25.1,0.3854840104011474,0.14160151803985274
25.200000000000003,0.3849996277736357,0.1414496566814221
25.3,0.3806266323237078,0.1400762466849605
25.400000000000002,0.38223676880949975,0.1405824414318804
25.5,0.3915666459754888,0.14350401073206762
25.6,0.38910670066464237,0.14273560623444692
25.700000000000003,0.3815247378132404,0.14035866587185458
25.8,0.38359418309560916,0.14100872748601484
25.900000000000002,0.38628540919598103,0.14185265226598115
26.0,0.3859087788010635,0.1417346457396387
26.1,0.38655380891845054,0.1419367281965403
26.200000000000003,0.38767301541762555,0.1422871431148938
26.3,0.3855317990355937,0.14161649762977
26.400000000000002,0.3780279283480248,0.1392580194616833
26.5,0.3912833632195248,0.14341559192562675
26.6,0.3864186091573813,0.14189437904813132
26.700000000000003,0.3912514897812651,0.14340564239465065
26.8,0.38350314215138,0.14098014982858334
26.900000000000002,0.38658467745220887,0.1419463966887141
27.0,0.387333668812949,0.14218092617535577
27.1,0.3899469467954043,0.14299822388451183
27.200000000000003,0.38752135022345874,0.14223967447067593
27.3,0.3843236345420103,0.14123763366473427
27.400000000000002,0.3877856693600154,0.1423223985383233
27.5,0.38194016572225614,0.14048923966683374
27.6,0.3849314468680284,0.14142827666128108
27.700000000000003,0.3892853793260925,0.1427914652741897
27.8,0.38277515621457087,0.14075156813978892
27.900000000000002,0.38795211161901955,0.14237448195572894
28.0,0.3883659177807512,0.14250394387763077
28.1,0.3876743303744243,0.1422875546514768
28.200000000000003,0.38829026728136584,0.14248027901438903
28.3,0.3888062610183985,0.14264166572384263
28.400000000000002,0.3853100168368305,0.14154697450884612
28.5,0.38291968984388036,0.14079696010181625
28.6,0.3885279371957222,0.1425546221834197
28.700000000000003,0.3749462517601354,0.13828572142430096
28.8,0.3876898996805932,0.14229242728309968
28.900000000000002,0.402066810373687,0.1467687088412706
29.0,0.36393472216019757,0.1347935855081317
29.1,0.369654993378351,0.1366111851552742
29.200000000000003,0.37053417666738037,0.13688986990323465
29.3,0.3814618960787015,0.1403389105692314
29.400000000000002,0.3943197529225478,0.1443623799354204
29.5,0.38768980307718975,0.14229239704988517
29.6,0.37168048132558257,0.13725295877753818
29.700000000000003,0.3731058642668862,0.13770402193780795
29.8,0.37860234658703434,0.1394390133928502
29.900000000000002,0.37975800025429995,0.13980292091539376
30.0,0.37638009523191535,0.13873838336661293
30.1,0.3845973957068537,0.14132351041046992
30.200000000000003,0.3940612485587085,0.14428185505806304
30.3,0.3845865841706569,0.14132011923780288
30.400000000000002,0.3715581366806607,0.13721422091210683
30.5,0.3876751651687772,0.14228781591340542
30.6,0.3851786983847272,0.14150580424249568
30.700000000000003,0.3918390779399705,0.14358902578986515
30.8,0.37198473626184275,0.13734927974235872
30.900000000000002,0.3986015736887176,0.14569401256712738
31.0,0.37951080378357965,0.13972510605131827
31.1,0.38087466317659663,0.14015426108329998
31.200000000000003,0.3791973218618485,0.13962640516440336
31.3,0.38744455169126985,0.14221563584826738
31.400000000000002,0.36849502902494546,0.13624322420068619
31.5,0.3794652709126831,0.13971077125895906
31.6,0.39008801896620465,0.1430423002117061
31.700000000000003,0.3705343872897445,0.13688993664518462
31.8,0.3742641532589073,0.1380702183687797
31.900000000000002,0.3886898882982378,0.14260527321237015
32.0,0.3698815270846491,0.13668300923069698
32.1,0.3911655648557035,0.14337881915405915
32.2,0.3862461422543496,0.14184035057292085
32.300000000000004,0.3884351602371335,0.14252560305729942
32.4,0.37210486469967907,0.137387304096729
32.5,0.403281718934385,0.14714486753342684
32.6,0.38404434804178217,0.14115000616210913
32.7,0.3763763661359372,0.1387372067090854
32.800000000000004,0.3870771278550027,0.14210061051130948
32.9,0.349520947344535,0.13017963008967298
33.0,0.38690574051576176,0.1420469457416789
33.1,0.36042895051340795,0.13367586533245787
33.2,0.37036065305706845,0.13683488030952837
33.300000000000004,0.392709432053224,0.14386051684102896
33.4,0.3617658926395539,0.1341024524565596
33.5,0.38651484785289547,0.14192452469358016
33.6,0.36504178153387434,0.13514594457230847
33.7,0.4106903416044019,0.14943169292410627
33.800000000000004,0.3816043776730746,0.1403837006423843
33.9,0.3785821294851208,0.13943264444954775
34.0,0.38232337729648774,0.14060965269588574
34.1,0.3950315856821146,0.14458404082263127
34.2,0.33341182299743405,0.12496430157684171
34.300000000000004,0.3644058585014875,0.13494357551797898
34.4,0.38374774066264006,0.14105692478575
34.5,0.37225053150796233,0.13743340766711978
34.6,0.3701353477690352,0.13676347072270365
34.7,0.3796501553602281,0.13976897418495055
34.800000000000004,0.37125688683282576,0.13711882173571804
34.9,0.3993650873151755,0.14593103452144915
35.0,0.36048841293262945,0.13369484731324097
35.1,0.3835984870698796,0.14101007845249874
35.2,0.4078933933748058,0.14856977098372479
35.300000000000004,0.4376417668789874,0.15765068156166853
35.4,0.33928794764590675,0.12687396060378153
35.5,0.3957506478304525,0.14480783809805395
35.6,0.35182882055018017,0.13092170122308527
35.7,0.3895042533257964,0.14285988050748638
35.800000000000004,0.37263196140889554,0.13755410711615043
35.9,0.35512418981163146,0.13197909777751035
36.0,0.41935192137943345,0.15209009000569665
36.1,0.3791507717297992,0.1396117467784442
36.2,0.3495722817886147,0.1301961499086681
36.300000000000004,0.4225575171980785,0.15306983492422407
36.4,0.3599356383180103,0.13351835499906745
36.5,0.3623648856538934,0.13429344135260793
36.6,0.3747197273272848,0.1382141648700329
36.7,0.4101859078980848,0.14927637042279962
36.800000000000004,0.3539988159366019,0.1316182845615148
36.9,0.4120103630858702,0.14983788411981702
37.0,0.39990639794524196,0.14609899838190468
37.1,0.36543014829261394,0.1352694877148475
37.2,0.438506583024089,0.15791185368862803
37.300000000000004,0.32743389595803385,0.12301290313545261
37.4,0.3632419223246187,0.13457293302290588
37.5,0.35818371142598443,0.13295851770764314
37.6,0.3830390645763922,0.14083444713054205
37.7,0.3515587927183974,0.13083494222698872
37.800000000000004,0.3463726790516158,0.12916529023937312
37.9,0.3759523772091592,0.1386034028870024
38.0,0.3790666509521462,0.13958525634352853
38.1,0.4508749066640462,0.16162996951045017
38.2,0.40786413232471525,0.1485607447004078
38.300000000000004,0.4127360806679444,0.15006103699709303
38.400000000000006,0.3829201969811454,0.1407971193640474
38.5,0.3174164257097334,0.11972307397616982
38.6,0.37609194485570624,0.1386474526563419
38.7,0.3976794768282222,0.14540758814442142
38.800000000000004,0.41172543389826927,0.14975023911105917
38.900000000000006,0.436365748557823,0.15726504043225203
39.0,0.37885115111820344,0.13951738601842115
39.1,0.42474559539504186,0.1537373230253487
39.2,0.40939098141327723,0.14903148815246584
39.300000000000004,0.42547235748791595,0.15395879996405992
39.400000000000006,0.48497013260274335,0.17171771871972094
39.5,0.45232578811507806,0.1620640489467559
39.6,0.3943948399813937,0.1443857669793366
39.7,0.42705313855451255,0.15444014504970455
39.800000000000004,0.41571275366739735,0.15097514448927407
39.900000000000006,0.5129445921636728,0.17982302335815345
40.0,0.4699436692295107,0.16730069215529658
40.1,0.37913235431113884,0.13960594709586652
40.2,0.4357668238609424,0.15708391390821977
40.300000000000004,0.48177552871217244,0.17078241820113188
40.400000000000006,0.38179781387523865,0.14044450125663752
40.5,0.3434246933563281,0.1282133267599288
40.6,0.4715508343435802,0.16777526928549738
40.7,0.4400899673953753,0.15838962481944768
40.800000000000004,0.365150807435266,0.13518063029197197
