Frequency (Hz),Power,Log Power
0.0,0.004266110302015701,0.0018488073533206712
0.1,0.004266122459082845,0.0018488126106395082
0.2,0.004266159082507704,0.0018488284484246553
0.30000000000000004,0.004266220036285857,0.001848854807859852
0.4,0.004266305404952626,0.001848891725500322
0.5,0.004266415220540262,0.0018489392151959493
0.6000000000000001,0.0042665493601137154,0.001848997223779907
0.7000000000000001,0.004266707870630805,0.001849065771554933
0.8,0.004266890826626919,0.001849144890748759
0.9,0.004267098180892941,0.0018492345609400598
1.0,0.004267329882761953,0.0018493347602114869
1.1,0.00426758601808314,0.0018494455256811097
1.2000000000000002,0.004267866535151195,0.0018495668349809433
1.3,0.0042681714443777745,0.0018496986926046664
1.4000000000000001,0.004268500780667518,0.0018498411136371785
1.5,0.004268854493042857,0.001849994076022876
1.6,0.004269232647211114,0.0018501576081655922
1.7000000000000002,0.004269635144144339,0.0018503316672289626
1.8,0.0042700620646295975,0.0018505162881366616
1.9000000000000001,0.004270513403807547,0.0018507114687735713
2.0,0.004270989130808266,0.0018509171957760992
2.1,0.004271489279899201,0.001851133483947848
2.2,0.004272013818377913,0.0018513603191311272
2.3000000000000003,0.004272562802717274,0.0018515977257310007
2.4000000000000004,0.004273136182736184,0.0018518456820292549
2.5,0.004273733996792875,0.0018521042045958772
2.6,0.004274356191215762,0.0018523732702018683
2.7,0.004275002867028608,0.0018526529225149724
2.8000000000000003,0.004275673876537004,0.0018529430976449083
2.9000000000000004,0.004276369446553374,0.001853243893654491
3.0,0.004277089314277727,0.0018535551968753288
3.1,0.00427783364500368,0.0018538770787649332
3.2,0.004278602474158108,0.0018542095546199824
3.3000000000000003,0.0042793956377935385,0.0018545525535181378
3.4000000000000004,0.004280213357508977,0.0018549061712635042
3.5,0.004281055346570841,0.0018552702838340917
3.6,0.004281921902219393,0.0018556450197429971
3.7,0.004282813175619034,0.0018560304443325283
3.8000000000000003,0.0042837285551775356,0.0018564262930961975
3.9000000000000004,0.004284668442663615,0.0018568327397468737
4.0,0.004285632703316092,0.0018572497259785536
4.1000000000000005,0.004286621729881265,0.001857677421600479
4.2,0.004287635491410038,0.001858115813197212
4.3,0.004288672745082492,0.0018585643632915824
4.4,0.004289734864028731,0.0018590236656475974
4.5,0.004290822011077871,0.0018594937906448786
4.6000000000000005,0.004291933726599101,0.001859974539486338
4.7,0.004293069092238969,0.0018604655150055056
4.800000000000001,0.004294230714081462,0.0018609678441363349
4.9,0.004295414303795482,0.0018614796724063945
5.0,0.004296621599217444,0.0018620017512859916
5.1000000000000005,0.004297859207162575,0.001862536937762322
5.2,0.004299111068434049,0.0018630782872220506
5.300000000000001,0.004300396815964552,0.0018636342896062
5.4,0.004301705379289663,0.001864200157610378
5.5,0.004303041376591046,0.0018647778882532038
5.6000000000000005,0.00430439205370374,0.0018653619661642665
5.7,0.0043057737318229865,0.0018659594491335135
5.800000000000001,0.004307181190745039,0.001866568079722961
5.9,0.004308608905602338,0.0018671854687600108
6.0,0.004310067925950047,0.0018678163943739938
6.1000000000000005,0.004311531491104324,0.001868449284382393
6.2,0.004313043343588923,0.0018691030543299604
6.300000000000001,0.004314572418522382,0.0018697642707752131
6.4,0.004316131115149145,0.0018704382954655898
6.5,0.004317711319437213,0.0018711216196116817
6.6000000000000005,0.0043193058682389086,0.00187181114563332
6.7,0.004320939676072856,0.0018725176471866293
6.800000000000001,0.004322600962969335,0.0018732360302321106
6.9,0.004324272734246407,0.001873958945793024
7.0,0.0043259510231029325,0.0018746846785071864
7.1000000000000005,0.004327691934034933,0.0018754374892408223
7.2,0.004329432943815042,0.0018761903414136313
7.300000000000001,0.004331215826909101,0.001876961299205927
7.4,0.004332992336891736,0.0018777294997636776
7.5,0.004334835254872782,0.001878526415111056
7.6000000000000005,0.0043366840801491256,0.0018793258834240492
7.7,0.004338576763422768,0.0018801443152709149
7.800000000000001,0.004340455193833648,0.0018809565823869208
7.9,0.004342396490994826,0.0018817960326207495
8.0,0.004344345411123454,0.0018826387775245424
8.1,0.004346292831156323,0.0018834808721290403
8.200000000000001,0.004348294221319349,0.0018843463025528583
8.3,0.004350332441434366,0.0018852276570150517
8.4,0.004352442819019863,0.0018861402114769053
8.5,0.004354337240706217,0.0018869593821920871
8.6,0.0043566968648538745,0.001887979709884107
8.700000000000001,0.004358499718423937,0.0018887592821783348
8.8,0.004360789563406796,0.0018897494325152391
8.9,0.004362949309272014,0.0018906833247110098
9.0,0.00436524183426733,0.0018916746295171245
9.1,0.0043673835669035405,0.0018926007285448576
9.200000000000001,0.004369596104697599,0.0018935574421063638
9.3,0.004371942768540887,0.0018945721502092044
9.4,0.004374265038629707,0.0018955763080079114
9.5,0.004376618039522934,0.0018965937515469389
9.600000000000001,0.004379065886128623,0.0018976522040824832
9.700000000000001,0.004381205445631237,0.0018985773507004067
9.8,0.004383590436182521,0.0018996086195059271
9.9,0.00438638077606228,0.0019008151580641576
10.0,0.004388436414437407,0.0019017040107075147
10.100000000000001,0.004391180860533015,0.0019028906991675136
10.200000000000001,0.004393284748541793,0.0019038004104564676
10.3,0.004396011394222765,0.0019049793964015299
10.4,0.004398477023237358,0.0019060455174822067
10.5,0.004401085979048156,0.001907173609237195
10.600000000000001,0.00440389167308192,0.001908386765765909
10.700000000000001,0.0044064575678370976,0.001909496232305358
10.8,0.00440945300672637,0.0019107914257311834
10.9,0.004411665119746334,0.001911747915554203
11.0,0.004415357070447538,0.0019133442638701718
11.100000000000001,0.0044165208056161104,0.0019138474456124753
11.200000000000001,0.0044192291964574625,0.001915018511188391
11.3,0.004422631250311406,0.0019164895012598409
11.4,0.004425587321809792,0.0019177676521205515
11.5,0.004428467643222452,0.0019190130464214047
11.600000000000001,0.00443100898666594,0.0019201118703530509
11.700000000000001,0.004434959077982473,0.0019218198019811806
11.8,0.004437952709326349,0.0019231141771165045
11.9,0.004440466797948806,0.0019242012063813126
12.0,0.004444744800633991,0.0019260509018731503
12.100000000000001,0.0044444491992208955,0.0019259230918745238
12.200000000000001,0.004447967838508905,0.0019274444532114438
12.3,0.004453274697765567,0.0019297389808293599
12.4,0.0044538442576415255,0.0019299852408072276
12.5,0.004457946416417059,0.0019317588825653047
12.600000000000001,0.004459673129822825,0.001932505455840964
12.700000000000001,0.004463420581194941,0.0019341257243890263
12.8,0.004465345179478045,0.0019349578518676254
12.9,0.004471698897081142,0.0019377049608452497
13.0,0.004470157718378523,0.0019370386146252364
13.100000000000001,0.0044737288715927205,0.0019385826419575439
13.200000000000001,0.004476494428330822,0.0019397783570298244
13.3,0.004481472157700778,0.0019419305179348052
13.4,0.004483310629053978,0.0019427253929577527
13.5,0.004487361491770939,0.0019444768046127648
13.600000000000001,0.004483539043714196,0.0019428241494170466
13.700000000000001,0.004502313238359604,0.0019509412092039305
13.8,0.004501507388069869,0.0019505928013706347
13.9,0.004480842391053494,0.0019416582339025785
14.0,0.004491846841291303,0.0019464160606668536
14.100000000000001,0.004493143994833431,0.0019469768877791516
14.200000000000001,0.0045082651389210335,0.001953514493385145
14.3,0.004513762666629759,0.001955891317446825
14.4,0.0045203372005899155,0.0019587337618037137
14.5,0.0045236064648883035,0.0019601471937489446
14.600000000000001,0.00452875154927085,0.001962371607410794
14.700000000000001,0.004538199716264351,0.001966456376001306
14.8,0.004547505835989002,0.0019704796950993286
14.9,0.004552430859558299,0.0019726089177630472
15.0,0.004561665051328157,0.001976601083801497
15.100000000000001,0.00454729481785627,0.001970388465944186
15.200000000000001,0.0045672284751023225,0.001979006269704082
15.3,0.004572437930937561,0.0019812584156954837
15.4,0.004569562970792447,0.001980015517656289
15.5,0.004580143798022517,0.0019845897859295716
15.600000000000001,0.004581716675022849,0.001985269762804939
15.700000000000001,0.004592212360503729,0.0019898071681757105
15.8,0.004575710516040182,0.001982673209973104
15.9,0.0046005389483359015,0.0019934068139998724
16.0,0.0046059589839128525,0.001995749919644063
16.1,0.004592181068603209,0.0019897936403981556
16.2,0.004605549003951278,0.001995572683913252
16.3,0.004624963613958709,0.002003965606419497
16.400000000000002,0.0046243533562952835,0.0020037017949217756
16.5,0.004626367149858219,0.002004572347733512
16.6,0.004624624571756528,0.0020038190401009447
16.7,0.004613993752556824,0.001999223362838485
16.8,0.0046316540271786185,0.002006857829859296
16.900000000000002,0.004634107236349464,0.0020079183318857854
17.0,0.0046373753635719625,0.002009331112220583
17.1,0.004655216993067896,0.002017043798036348
17.2,0.004648563712802021,0.002014167694448863
17.3,0.004639871648301179,0.002010410229285927
17.400000000000002,0.004695450854126222,0.002034435828332736
17.5,0.004681971754750706,0.0020286092490012005
17.6,0.004685631436899992,0.002030191219129961
17.7,0.004679386589659851,0.0020274917566905
17.8,0.004699434360943838,0.0020361577547119655
17.900000000000002,0.004683714265672284,0.002029362484595148
18.0,0.004690880033467061,0.0020324600189430765
18.1,0.004707786911079493,0.0020397682388341525
18.2,0.004688006675326646,0.002031217959923526
18.3,0.0046875482159004665,0.002031019782536134
18.400000000000002,0.0046951477492155926,0.0020343048067283137
18.5,0.004707429177637079,0.0020396136051289895
18.6,0.004682694062865078,0.002028921481453247
18.7,0.004791557855514722,0.0020759775155655634
18.8,0.004637860395843896,0.0020095407866698406
18.900000000000002,0.004678278385562683,0.0020270127111401666
19.0,0.004648134358203159,0.002013982090866075
19.1,0.004683813981607275,0.002029405588785548
19.200000000000003,0.004762205006456924,0.0020632903403225425
19.3,0.004671991663091501,0.0020242951273328666
19.400000000000002,0.004695351225483757,0.002034392762375024
19.5,0.004693626781751095,0.0020336473453296832
19.6,0.004714021350033173,0.00204246312591486
19.700000000000003,0.00472103586639979,0.002045495187827312
19.8,0.004653507688562242,0.0020163048956412014
19.900000000000002,0.004627253395178797,0.002004955466567645
20.0,0.004666968883309736,0.002022123900291618
20.1,0.004578736326818665,0.0019839813154066102
20.200000000000003,0.004534626548803316,0.0019649115769368288
20.3,0.0046591535727921,0.0020187455077108883
20.400000000000002,0.004621187680051278,0.002002333285502496
20.5,0.004627901078440011,0.0020052354561605583
20.6,0.004699334114642293,0.0020361144219336797
20.700000000000003,0.004637421839809984,0.0020093512034233575
20.8,0.004676681939206191,0.002026322611225473
20.900000000000002,0.0046130514588258184,0.0019988160092059533
21.0,0.0045556752979125,0.0019740115716767783
21.1,0.004624295683350984,0.002003676863172757
21.200000000000003,0.004584913721580657,0.0019866518877690847
21.3,0.004625875076788776,0.0020043596271856986
21.400000000000002,0.004452515969111922,0.0019294109299381826
21.5,0.004444286532704698,0.0019258527592881064
21.6,0.004532346360199767,0.0019639257727386145
21.700000000000003,0.004459424769086118,0.001932398073022454
21.8,0.004524961531548363,0.001960733041181824
21.900000000000002,0.004690039767533544,0.002032096799749887
22.0,0.004715153510117573,0.0020429525095501887
22.1,0.004816637018648627,0.002086817182907874
22.200000000000003,0.004599901412909535,0.0019931312037499804
22.3,0.004708469007323168,0.002040063081312805
22.400000000000002,0.004782497813889311,0.0020720615353879332
22.5,0.004730705281327727,0.002049674809024919
22.6,0.004735791034714961,0.0020518731185130193
22.700000000000003,0.004594943563902802,0.001990987890998513
22.8,0.004849620242809874,0.0021010727163310278
22.900000000000002,0.004705170693217568,0.0020386373523465506
23.0,0.005027223689225921,0.0021778258737984763
23.1,0.00492003884088977,0.0021315064612567633
23.200000000000003,0.005153371673790449,0.0022323337859709957
23.3,0.005059227043825208,0.002191655010650748
23.400000000000002,0.005343408501111169,0.0023144348333573772
23.5,0.00531722010641153,0.002303121660814178
23.6,0.005767312987724902,0.0024975171272854733
23.700000000000003,0.00571701964641437,0.0024757997116856634
23.8,0.005906673556987322,0.0025576894282916675
23.900000000000002,0.006145337290743579,0.002660718915132084
24.0,0.005810174713489097,0.00251602460323493
24.1,0.005142602845251205,0.0022276808961772267
24.200000000000003,0.00531831444244369,0.002303594410939183
24.3,0.00544504977309183,0.002358340241119918
24.400000000000002,0.005812187764532142,0.0025168938090819708
24.5,0.006051747132968991,0.0026203196029316177
24.6,0.006196916937748686,0.0026829822811481395
24.700000000000003,0.006852264795802019,0.00296575129754077
24.8,0.007976742348880123,0.0034505114884034165
24.900000000000002,0.005613715221218481,0.0024311879120641837
25.0,0.00594195205904412,0.0025729204537073506
25.1,0.0064341165611244405,0.0027853502624660487
25.200000000000003,0.0060128502377802436,0.0026035281868231792
25.3,0.006471708500030437,0.0028015715594881282
25.400000000000002,0.006098457141261664,0.002640483007046958
25.5,0.00647632883138141,0.0028035652367942756
25.6,0.006367525284112342,0.002756613974141874
25.700000000000003,0.005807042590396584,0.002514672195069013
25.8,0.0057058396940081815,0.0024709718937899914
25.900000000000002,0.005681508630025616,0.002460464870529908
26.0,0.011107393137668701,0.004797285927387637
26.1,0.006569176927314626,0.002843627337360081
26.200000000000003,0.0062127322357605165,0.0026898084227929796
26.3,0.006863259646604616,0.002970493777772012
26.400000000000002,0.007022126014604257,0.0030390128579704453
26.5,0.006879836870731164,0.0029776440413543247
26.6,0.006812660236945158,0.002948667977313904
26.700000000000003,0.0068115778423557365,0.0029482010798773535
26.8,0.006327198550721869,0.0027392107608481086
26.900000000000002,0.0058668905092876915,0.0025405129841828142
27.0,0.005845780383609158,0.0025313983514348103
27.1,0.006690491044949997,0.0028959663900594216
27.200000000000003,0.005967191704637419,0.0025838170081973195
27.3,0.005515480304816428,0.002388761117950239
27.400000000000002,0.00684436988499217,0.0029623459025664056
27.5,0.005936976556419002,0.002570772378786927
27.6,0.0054845385059096915,0.002375396769466139
27.700000000000003,0.005689292110019469,0.002463826083102062
27.8,0.006737277128349596,0.0029161498187129813
27.900000000000002,0.006106630911080025,0.0026440112986207552
28.0,0.005184803396383025,0.002245914211243823
28.1,0.004531819195617773,0.0019636978609845384
28.200000000000003,0.004043262229604656,0.001752426098647691
28.3,0.003982305758986047,0.0017260588459033653
28.400000000000002,0.0036530323048681286,0.0015836010571489386
28.5,0.004025546501524277,0.0017447631710477878
28.6,0.005007192734441168,0.0021691699691438774
28.700000000000003,0.003673511738552993,0.0015924626995842959
28.8,0.0048975260069585545,0.0021217770214113
28.900000000000002,0.017971293820261167,0.007735531329585241
29.0,0.0040557988058946125,0.0017578487055403564
29.1,0.0033259475719500504,0.0014420439234639187
29.200000000000003,0.0009112807913400189,0.0003955840024550429
29.3,0.0037833719086059303,0.0016399971358865716
29.400000000000002,0.004605681828015514,0.0019956301042155654
29.5,0.0018371551235722896,0.0007971343268589044
29.6,0.003557206664744547,0.0015421340040678532
29.700000000000003,0.0047155619289702775,0.002043129051147454
29.8,0.004553789447641224,0.00197319627078762
29.900000000000002,0.002734961184748037,0.0011861572421108307
30.0,0.0022617916832388426,0.0009811744589403875
30.1,0.002131630179710326,0.0009247699405444088
30.200000000000003,0.00161958433800899,0.0007028075664114745
30.3,0.002731774138769658,0.0011847768986150862
30.400000000000002,0.005500950532753242,0.002382485485654307
30.5,0.0021815880499462914,0.0009464196778991155
30.6,0.00327742647218027,0.0014210408232373398
30.700000000000003,0.004089972568762563,0.0017726299797410825
30.8,0.004246322872546665,0.0018402502029762125
30.900000000000002,0.005891819162310762,0.0025512760805697253
31.0,0.004554457733062608,0.00197348518769509
31.1,0.003292322471566064,0.0014274888924750947
31.200000000000003,0.0049873995913872265,0.0021606166597558612
31.3,0.002383361150550609,0.0010338490670240342
31.400000000000002,0.005076356330810653,0.0021990566554735604
31.5,0.003422411254644093,0.0014837966872781963
31.6,0.005001746078049953,0.0021668162952174904
31.700000000000003,0.008079562689393699,0.003494810158474859
31.8,0.006393669789523201,0.002767896399956166
31.900000000000002,0.008313949279858445,0.0035957753745650906
32.0,0.007037856710430695,0.003045796920463848
32.1,0.007668163739359429,0.0033175376813698435
32.2,0.004607055724981188,0.001996224044179891
32.300000000000004,0.008192409563779113,0.003543423416578142
32.4,0.012775771175248559,0.005513303089199341
32.5,0.015381121090396285,0.006629084336966612
32.6,0.01559291610210621,0.006719662949523232
32.7,0.01191041368962442,0.005142065307686618
32.800000000000004,0.01303125727833478,0.005622845808523722
32.9,0.013082692247596494,0.005644895825342536
33.0,0.013755935324090527,0.005933409927922635
33.1,0.015316459458127306,0.0066014266587738745
33.2,0.016942810664984303,0.007296530394739029
33.300000000000004,0.020130426755646056,0.00865570117278656
33.4,0.00983285571996073,0.004249496707801581
33.5,0.032211736631102564,0.013768792851686947
33.6,0.024407407190280363,0.010472710064095074
33.7,0.02025160841669568,0.008707288106857105
33.800000000000004,0.03596124028525664,0.015343506910055229
33.9,0.028847863427073267,0.012351160030710143
34.0,0.02611677000195437,0.011196785417023254
34.1,0.031003610341433098,0.013260186087218639
34.2,0.03435103373495803,0.014667952821621165
34.300000000000004,0.031456270384784074,0.013450820352640294
34.4,0.027691396049475736,0.011862720579609963
34.5,0.03403301284679199,0.014534404394599576
34.6,0.038667252809218816,0.016476439362768342
34.7,0.036845705818157846,0.015714133344328012
34.800000000000004,0.03228185268421631,0.01379829259450956
34.9,0.03288318531443192,0.014051207442152753
35.0,0.03000308061153155,0.012838523628073428
35.1,0.044721754800017485,0.019000638346112413
35.2,0.03906053445653682,0.016640849784913814
35.300000000000004,0.045770141895547706,0.019436237995532582
35.4,0.04039883477072637,0.017199857121560008
35.5,0.042872626272382273,0.018231268076496193
35.6,0.01408372176975202,0.006073811409208696
35.7,0.04777336715700713,0.020267355131444918
35.800000000000004,0.03358097991999861,0.014344508785883926
35.9,0.045733104637399935,0.019420856640646585
36.0,0.04328570481552311,0.018403256684982827
36.1,0.07791845023012324,0.03258590560513208
36.2,0.0539720400019428,0.022829089971467813
36.300000000000004,0.05392395626582144,0.022809276374110617
36.4,0.05820049991584981,0.024567962365801492
36.5,0.0556243822170373,0.023509412753037473
36.6,0.04756681553036324,0.02018173253640159
36.7,0.049754677837596926,0.02108781858459425
36.800000000000004,0.057545541920246655,0.024299078816613216
36.9,0.05419076805148891,0.022919208614044444
37.0,0.05268434628375933,0.022298164900366582
37.1,0.055874162408241584,0.02361216267868708
37.2,0.058724824999312905,0.024783096544081503
37.300000000000004,0.06446377197021447,0.02713088521899816
37.4,0.05682448245868094,0.02400286561475045
37.5,0.07629409458668701,0.031930957394019334
37.6,0.05989087193624167,0.02526115191034213
37.7,0.08129665774531374,0.03394486060155956
37.800000000000004,0.08788833163537933,0.03658431866776425
37.9,0.07729231047640515,0.03233355993894624
38.0,0.08445786200654294,0.035212681612016634
38.1,0.08339140765401407,0.03478538688784083
38.2,0.10763947793134053,0.044398426255729845
