Frequency (Hz),Power,Log Power
0.0,0.2380310917792272,0.09273155164580614
0.5,0.23807015609404503,0.09274525497589467
1.0,0.23818735523272763,0.09278636454468454
1.5,0.23838268950042313,0.09285487267748949
2.0,0.23865616945417842,0.0929507701115409
2.5,0.239007815700375,0.09307404592799189
3.0,0.23943764920375663,0.09322468415923058
3.5,0.23994570683854588,0.09340266924558552
4.0,0.24053202106121477,0.09360797891915737
4.5,0.24119665671074444,0.093840597097408
5.0,0.24193968156558524,0.0941005035705494
5.5,0.24276118845320138,0.09438768173790331
6.0,0.24366128669134846,0.09470211560341223
6.5,0.24464010026065186,0.09504378912906748
7.0,0.24569782189438832,0.09541270508417317
7.5,0.24683460942997132,0.09580884884689947
8.0,0.24805066829713218,0.09623221716945625
8.5,0.24934638404764026,0.09668286417452403
9.0,0.2507217581389893,0.0971607051010215
9.5,0.2521774673417595,0.09766588448568717
10.0,0.25371374973279337,0.09819838888501187
10.5,0.2553320327146713,0.09875861099937927
11.0,0.2570288526398444,0.0993452461811563
11.5,0.2588104966178952,0.09996035562998505
12.0,0.26067286673235457,0.1006024056812366
12.5,0.2626163556483175,0.10127141078082147
13.0,0.2646505710440415,0.10197054445983507
13.5,0.26676173120312413,0.10269493488747043
14.0,0.2689605156884131,0.10344810902502596
14.5,0.2712499203403502,0.10423093871684042
15.0,0.2736218065497901,0.10504048631002567
15.5,0.27605600866261715,0.10586973686107254
16.0,0.2785963962567633,0.10673347603401992
16.5,0.2812404072359935,0.10763062680953091
17.0,0.2839382675587985,0.10854414312295993
17.5,0.28675502414317783,0.10949587263108507
18.0,0.2896668488672681,0.11047753635752217
18.5,0.2926165209863417,0.1114697023582398
19.0,0.2957750689443395,0.11252961974878778
19.5,0.29871379920449426,0.11351345506006033
20.0,0.30217739098991736,0.11467015065335945
20.5,0.30538616015602266,0.11573900394772253
21.0,0.30910325433962804,0.11697390248766883
21.5,0.312228423452544,0.11800944053521577
22.0,0.3164275330629064,0.11939695698016352
22.5,0.3195138519711447,0.12041395370957743
23.0,0.32398295192680565,0.12188239301018965
23.5,0.3272519771762928,0.12295338097202985
24.0,0.3310045158210825,0.12417952894789103
24.5,0.33449980591036305,0.1253185149597464
25.0,0.3402906665046812,0.12719899326771839
25.5,0.34306137688457955,0.12809586005010684
26.0,0.34697213898312124,0.12935861278978006
26.5,0.3514034790809348,0.1307850326470495
27.0,0.3559540743555181,0.13224498039259205
27.5,0.3601406679674726,0.13358382613702843
28.0,0.36464296404129937,0.1350190403663741
28.5,0.3691240850571513,0.13644281045211024
29.0,0.3719894365872456,0.13735076760285378
29.5,0.37536368352927396,0.13841755261392358
30.0,0.3796755966278625,0.13977698266465874
30.5,0.3821872640034306,0.14056688689766234
31.0,0.3863284051047828,0.14186612178405264
31.5,0.39451103733495974,0.1444219559880121
32.0,0.39750083813753134,0.14535207702242928
32.5,0.40278453160651795,0.14699096830515102
33.0,0.4045562818825974,0.14753914647195895
33.5,0.4101589524062141,0.1492680688696516
34.0,0.41528242088913725,0.15084311236565928
34.5,0.417393914500078,0.15149056381091522
35.0,0.4215691059114528,0.15276797664447953
35.5,0.42706271729322476,0.15444306013344772
36.0,0.4297074977162036,0.15524719472268952
36.5,0.435343625291712,0.15695588483518189
37.0,0.4353101744649544,0.1569457634409003
37.5,0.43863557891636396,0.15795079664040965
38.0,0.4406374766421902,0.15855470829378884
38.5,0.4496014347755539,0.16124861018566106
39.0,0.44729554961541457,0.1605572266688519
39.5,0.4573012132108347,0.16354932645437398
40.0,0.45955205384079234,0.16421958839062284
40.5,0.4566619189449728,0.1633587667500545
41.0,0.4767993203158579,0.16932148380159562
41.5,0.4717031721896203,0.16782022598025256
42.0,0.47050394555846414,0.16746619411474414
42.5,0.49818016421895717,0.17556404275015694
43.0,0.5048537984349433,0.17749430882208628
43.5,0.49622020580804255,0.17499551540645336
44.0,0.5299666714679875,0.1846819703240068
44.5,0.5052465975444802,0.17760765420217034
45.0,0.5258152679629916,0.18350195631823424
45.5,0.5166460779370488,0.18088424635567818
46.0,0.5703827626739453,0.19600551957929463
46.5,0.5918941405489176,0.2019141841905648
47.0,0.5946306824764063,0.2026601161489083
47.5,0.5527130229777713,0.19109119555215484
48.0,0.5871712331044351,0.20062378345348614
48.5,0.6192048800843446,0.2093018040718273
49.0,0.5951329220739197,0.2027968785643329
49.5,0.6384587894012514,0.21443552245888262
50.0,0.6534298298112937,0.218385768543706
50.5,0.6471451508769788,0.21673187205820876
51.0,0.6533054463740438,0.21835309641488315
51.5,0.6824883651745615,0.22595206965205786
52.0,0.6931817671190085,0.2287035831646952
52.5,0.7065381996945946,0.2321160141094684
53.0,0.7306002558120559,0.23819676357510544
53.5,0.7302825850102423,0.23811703670596698
54.0,0.7406502198043242,0.24071150927321597
54.5,0.7677907794765424,0.24743086435605474
55.0,0.7704197637038063,0.24807624910017542
55.5,0.7534564935097946,0.2438949947039619
56.0,0.7808670730528089,0.2506315041942264
56.5,0.7787795713868504,0.2501221330970513
57.0,0.8131914391284387,0.25844365989687723
57.5,0.7990781503759101,0.25505002912645064
58.0,0.8202360896884275,0.2601277208418104
58.5,0.7908318718762988,0.2530548150261444
59.0,0.8212587632181918,0.2603716544462131
59.5,0.7698505730212707,0.24793660079584026
60.0,0.8569468321971135,0.2687994692680697
60.5,0.7517765293635863,0.24347870328504836
61.0,0.8304358388774798,0.26255451043152334
61.5,0.8276627575231311,0.26189606226287987
62.0,0.7450566097690657,0.24180952006972486
62.5,0.763113751841192,0.24628033283435294
63.0,0.8347790778369377,0.263583779186251
63.5,0.8671628481261412,0.27118219741255795
64.0,0.7960578730429323,0.254320326506261
64.5,0.8158156505769824,0.2590717549773915
65.0,0.8721010244505716,0.2723292809285822
65.5,0.804132451744215,0.25626841843321224
66.0,0.8381997726955206,0.2643927080645908
66.5,0.8742672844251089,0.27283152458462206
67.0,0.7921802776921993,0.2533816937574533
67.5,0.8606738611648205,0.2696702566831151
68.0,0.8408450705287553,0.2650172388865286
68.5,0.7945181670010402,0.25394785931922664
69.0,0.8544326837470905,0.26821107297991936
69.5,0.8207162565059984,0.2602422698831847
70.0,0.8075757866150886,0.2570965151055645
70.5,0.8043229252225792,0.25631426718124295
71.0,0.8239044854487215,0.2610020913779804
71.5,0.8137462825349937,0.2585765353141901
72.0,0.8117605434796902,0.25810079735983477
72.5,0.8261775778451721,0.26154300612736614
73.0,0.8365574809169442,0.26400452552333875
73.5,0.8021897035332868,0.25580050410219973
74.0,0.7929602223958068,0.2535706546566436
74.5,0.739798130957657,0.24049885995088874
75.0,0.7388259719381913,0.24025611839779792
75.5,0.7152839355784885,0.23433602026703118
76.0,0.8033601574088558,0.25608247034698495
76.5,0.7664664698270712,0.2471053982909417
77.0,0.8037083817153002,0.25616632342245765
77.5,0.7976175303321497,0.2546972946632954
78.0,0.7797620671929355,0.25036194623470964
78.5,0.7743114159510412,0.2490298468145558
79.0,0.7115443325497276,0.23338815274784389
79.5,0.6609360291588828,0.22035290595030627
80.0,0.7888865049841669,0.2525827878436923
80.5,0.7503417139999401,0.24312284298191478
81.0,0.8309080974719452,0.2626665454144753
81.5,0.8300370669710592,0.26245988635226575
82.0,0.6923109044406768,0.2284801528396414
82.5,0.8389062792425452,0.26455959577152294
83.0,0.7510151471880459,0.24328990297192793
83.5,0.6815225666398568,0.2257027000784873
84.0,0.8097395379494771,0.2576160746642407
84.5,0.6691420071300456,0.2224932871222627
85.0,0.6601257382876091,0.2201409828451337
85.5,0.7760760858965746,0.24946156672255876
86.0,0.6979207578163152,0.2299174178006553
86.5,0.6805786121833022,0.2254588322109741
87.0,0.806835046871302,0.2569185059070659
87.5,0.6471506192223352,0.21673331386694675
88.0,0.6991206857447341,0.23022422718660202
88.5,0.6735562493480131,0.2236403138679305
89.0,0.6129235504611904,0.20761378313621284
89.5,0.5348234812280492,0.18605843483808615
90.0,0.7026558339112943,0.23112687078194546
90.5,0.5345508142693111,0.18598127399389547
91.0,0.8693032713501787,0.27167976600656857
91.5,0.6442935585737588,0.21597935547133015
92.0,0.5135642135625568,0.18000085079923345
92.5,0.813349270547247,0.25848146193457106
93.0,0.7256830087115411,0.23696102300681784
93.5,0.5187886809665712,0.18149735182562338
94.0,0.509929358572333,0.1789566294786828
94.5,0.6324377518678312,0.21283662974145526
95.0,0.5682450904924558,0.1954139366204207
95.5,0.5960059373859724,0.20303450265955295
96.0,0.6465543106016252,0.21657606022593587
96.5,0.603787794385652,0.2051469039580319
97.0,0.5971907617899802,0.20335678955433273
97.5,0.6424161622832043,0.2154832100814067
98.0,0.5686880014200698,0.1955365747306255
98.5,0.5762308001031248,0.1976198095192504
99.0,0.617648607778834,0.20888418830439343
99.5,0.5296955878988788,0.18460501405332944
100.0,0.5318581347306123,0.18521854717877184
100.5,0.5730508808969783,0.19674277026182194
101.0,0.49958818721857035,0.175972010673228
101.5,0.5664500914281327,0.19491656240786046
102.0,0.5158734765843686,0.18066295412299363
102.5,0.5131749522613631,0.17988914375954682
103.0,0.5566350504892478,0.19218680515855002
103.5,0.5136446081170452,0.180023918194616
104.0,0.5754248292700685,0.19739768582671277
104.5,0.5947901279929995,0.20270353864609086
105.0,0.5192603700077573,0.18163220939110064
105.5,0.5546991347143803,0.1916463568512273
106.0,0.5213066005105313,0.18221674955011163
106.5,0.5751458857415419,0.19732078316590845
107.0,0.5347203905714001,0.18602926327044927
107.5,0.5691541732800965,0.19566561619074108
108.0,0.5841721455375166,0.1998023728310298
108.5,0.596733206184762,0.20323235711457394
109.0,0.4981545442968961,0.17555661594917465
109.5,0.5195972321787857,0.18172849385176998
110.0,0.5190777295169513,0.1815799967966977
110.5,0.5118814178679378,0.1795177292702146
111.0,0.5521440931257138,0.19093203647406234
111.5,0.49399015919188366,0.17434773682159013
112.0,0.5458859786173946,0.189177458092368
112.5,0.5542014547689595,0.19150731113414804
113.0,0.484124877086259,0.1714704448431178
113.5,0.5119760505451294,0.17954491206567025
114.0,0.5413534945589538,0.1879022513924883
114.5,0.497671934884907,0.17541669155247747
115.0,0.5595320323208085,0.19299429946334543
115.5,0.5061914818653281,0.1778801871576731
116.0,0.5147485156369663,0.18034053558613436
116.5,0.46058950314096364,0.16452817516046486
117.0,0.515953373639952,0.18068584385389347
117.5,0.3880989685204643,0.14242043150070857
118.0,0.4230647598877451,0.1532246641193812
118.5,0.37761684535509316,0.13912844464967378
119.0,0.4531187923695785,0.16230111929579683
119.5,0.4635817340254695,0.1654169807124607
120.0,0.6033746857323173,0.20503502262325438
120.5,0.43633036923423785,0.15725434313300612
121.0,0.6065443952491177,0.20589273134742603
121.5,0.37639134875248087,0.1387419342185329
122.0,0.41187541664911664,0.14979637642619872
122.5,0.6173856282312121,0.20881357973687606
123.0,0.4640470544194281,0.1655550351556419
123.5,0.42820186116200826,0.15478959469020173
124.0,0.6263843803292785,0.21122319471914988
124.5,0.5939340958519501,0.20247036072412417
125.0,0.4101001226926025,0.14924995037818195
125.5,0.4780135743882433,0.16967842272919767
126.0,0.4121921534739732,0.14989379410648568
126.5,0.42664042566799204,0.15431452614463145
127.0,0.469188515068156,0.16707752472224863
127.5,0.3932413925033842,0.1440263686492279
128.0,0.41948260493541895,0.15213007482816798
128.5,0.4509732108053663,0.16165939416977873
129.0,0.4172551413133363,0.15144804113660912
129.5,0.39903570861693116,0.14582879945063834
130.0,0.45508307393454217,0.16288778886930727
130.5,0.33316998003767306,0.1248855257724919
131.0,0.4413706289674729,0.1587756681276723
131.5,0.3961801810662876,0.14494146885541961
132.0,0.3940187271248821,0.14426860807502387
132.5,0.3994308696385947,0.14595144965746645
133.0,0.42740486867806826,0.15454717374108165
133.5,0.36691485868758894,0.13574146441879767
134.0,0.4653999348687571,0.1659561679003117
134.5,0.42602945559072547,0.15412849625104627
135.0,0.46210650654501423,0.16497900977644134
135.5,0.3831436614151534,0.14086729082484564
136.0,0.43081671398962557,0.15558400468846972
136.5,0.29499003214553626,0.11226642555947096
137.0,0.41493174863877325,0.15073549151794488
137.5,0.5125956356920472,0.17972284298750218
138.0,0.325248751949893,0.12229740390278042
138.5,0.37875982550985166,0.13948862038895837
139.0,0.4557279742545101,0.16308022778085848
139.5,0.3751384542765437,0.13834642682165596
140.0,0.30967765099015776,0.11716441655415029
140.5,0.3660073623568435,0.13545304006464573
141.0,0.3796870227629636,0.13978057937020885
141.5,0.38354445698604545,0.14099311874514478
142.0,0.4301718562588734,0.15538822749331888
142.5,0.3598077383661557,0.1334775083193084
143.0,0.40967642105499286,0.14911943557907126
143.5,0.40266117169881244,0.1469527750674947
144.0,0.3583440065995527,0.13300977086362992
144.5,0.3894525582536914,0.14284372272880783
145.0,0.4082651022897874,0.14868441732329468
145.5,0.3345555697597159,0.12533666215316017
146.0,0.37339013707016766,0.13779392420615358
146.5,0.3271285769477783,0.12291300090048
147.0,0.3195192672886648,0.12041573606122706
147.5,0.3679441026848153,0.1360683514838669
148.0,0.3745041062042674,0.13814604159614144
148.5,0.324481954069614,0.12204604545591645
149.0,0.4774985186015251,0.16952705411268
149.5,0.35842091285212196,0.13303435890279702
150.0,0.41298818457165737,0.15013853028678595
150.5,0.33633559127533363,0.12591553533798522
151.0,0.3339715802710222,0.12514657720950492
151.5,0.3464856316951279,0.1292017234298063
152.0,0.3837510298170441,0.1410579570981203
152.5,0.4074562820536168,0.14843491381983356
153.0,0.3364150898751083,0.12594137074676828
153.5,0.38760975960785915,0.14226734574550007
154.0,0.35789950783257196,0.13286763091011689
154.5,0.3204926336857396,0.12073598285565895
155.0,0.372300537814037,0.13744923354336874
155.5,0.39385679482674046,0.14421815653724884
156.0,0.4219279675740763,0.15287759633927347
156.5,0.38362261907733786,0.14101765312562717
157.0,0.3491328200647594,0.1300547074048288
157.5,0.3568107553130835,0.13251927753838305
158.0,0.34332494934275604,0.12818108090119396
158.5,0.35565546111316837,0.13214932791593298
159.0,0.3541630987775728,0.1316709750088658
159.5,0.3323950682938466,0.12463301653134827
160.0,0.3386897503111779,0.12667993822183177
160.5,0.3073214277983211,0.11638237959040221
161.0,0.3381037591435735,0.1264897907683946
161.5,0.3126104032300073,0.1181358419805432
162.0,0.333089318848088,0.12485924872617024
162.5,0.33708398442581894,0.12615868686346537
163.0,0.34183494521043417,0.1276990979545464
163.5,0.31771008095381137,0.11981986845817322
164.0,0.4017420982730911,0.14666811662637919
164.5,0.3384769215082721,0.12661088732869188
165.0,0.3439628294522701,0.1283872574179532
165.5,0.3000469277071418,0.11395902928869821
166.0,0.32273028077908195,0.12147129580404349
166.5,0.28733688535621676,0.10969221303169613
167.0,0.3942592732997885,0.14434354169114685
167.5,0.33467276672559604,0.12537479901460027
168.0,0.2897596778108463,0.11050879531958785
168.5,0.3602591349396462,0.13362165113045799
169.0,0.32712767265593123,0.1229127049765584
169.5,0.3298067495395263,0.12378853291702072
170.0,0.36395181779891966,0.13479902894681794
170.5,0.33301388115223207,0.12483467190180236
171.0,0.3285493005513378,0.12337767508813371
171.5,0.2643483977549273,0.10186676253324324
172.0,0.25149506212529227,0.09742914040371586
172.5,0.3197340408886851,0.12048641892388687
173.0,0.30820296281408677,0.11667512838588057
173.5,0.2598136579294287,0.10030631232567493
174.0,0.3316481417557775,0.12438948738651553
174.5,0.2714974046991425,0.10431547805793957
175.0,0.2925468170291958,0.1114462825274558
175.5,0.29574268443143636,0.11251876555708074
176.0,0.2958089383612632,0.1125409713398106
176.5,0.27956445843401534,0.10706216848587846
177.0,0.31001152016439393,0.11727511483273236
177.5,0.3058973656738375,0.11590904579583719
178.0,0.3489657544337595,0.13000092457981455
178.5,0.32935708340213105,0.12364165402102216
179.0,0.3529003582027614,0.13126581176669894
179.5,0.2753371442517788,0.1056250087173379
180.0,0.3094163352751767,0.11707775454505659
180.5,0.2452589047404685,0.0952596560184109
181.0,0.30554168932615067,0.11579074452757417
181.5,0.28992033327305045,0.11056288868040262
182.0,0.3500771290494612,0.1303585801718461
182.5,0.29829052328172806,0.1133718870252165
183.0,0.2441308745644742,0.09486606774351893
183.5,0.3153337856538533,0.11903597554289018
184.0,0.25919959870436154,0.10009457660924828
184.5,0.31067222395244576,0.11749409586472212
185.0,0.3109085928766186,0.11757241023068092
185.5,0.25885939077693226,0.09997722397605066
186.0,0.2690342253408342,0.10347333499953329
186.5,0.2596325652016765,0.10024387989763663
187.0,0.2934338821888208,0.11174423333516353
187.5,0.35754932566006187,0.13275561835134628
188.0,0.3338697504049107,0.125113423701867
188.5,0.26681405715125206,0.10271287385786952
189.0,0.3423032106377267,0.127850628972247
189.5,0.2503971717605074,0.09704798269331678
190.0,0.2677402238444755,0.10303027017887832
190.5,0.30674241807235675,0.11618998893134146
191.0,0.2683960426392985,0.10325487837034857
191.5,0.2788215001288444,0.10680992921743629
192.0,0.34229708262600267,0.1278486462847807
192.5,0.2778672497960321,0.10648573983525139
193.0,0.32630715636521085,0.12264411295776649
193.5,0.3268537529259428,0.12282305715423816
194.0,0.30557302545336834,0.1158011685101426
194.5,0.265631914565041,0.10230741759539584
195.0,0.30633893934867645,0.1160558724912584
195.5,0.24036662750256974,0.09355007287772367
196.0,0.31635779467927017,0.11937394941104805
196.5,0.30007414266167787,0.11396812063810914
197.0,0.2937450130253438,0.111848688737419
197.5,0.275492040475162,0.10567775280194253
198.0,0.24115437423934533,0.09382580221644019
198.5,0.28279127459128633,0.10815599724194683
199.0,0.27538170129684564,0.10564018159994557
199.5,0.2961509114852559,0.11265556959763451
200.0,0.28162819976274733,0.10776205465980605
200.5,0.2386739974808726,0.09295702088402163
201.0,0.29686556700741107,0.11289495948209273
201.5,0.3010231868960924,0.11428503664712922
202.0,0.33199328674295703,0.1245020359920627
202.5,0.32362812046672446,0.12176598516792886
203.0,0.23005759765757527,0.0899254478289881
203.5,0.2198789746414832,0.08631674604148269
204.0,0.2651776660252599,0.10215151678178186
204.5,0.21733388234551507,0.0854097100075282
205.0,0.23477401661634992,0.0915874820354635
205.5,0.25278300209773125,0.09787585219691451
206.0,0.24553564523842367,0.09535616086396441
206.5,0.2541090276354378,0.09833529410407882
207.0,0.3294129661826839,0.12365991026942157
207.5,0.2655382790045854,0.10227528589019672
208.0,0.29659749978891964,0.1128051798236313
208.5,0.2979275943869261,0.11325046578076116
209.0,0.2239799090373311,0.0877742891609851
209.5,0.23508926447447964,0.09169834680033466
210.0,0.2830637920690245,0.10824824940286322
210.5,0.19100636190526482,0.07591408132574276
211.0,0.3357483437599581,0.12572464435870034
211.5,0.2596218006188652,0.10024016848287962
212.0,0.24495957808880203,0.09515525079081522
212.5,0.2314366633324937,0.0904120796159927
213.0,0.21456813766222063,0.08442188388437014
213.5,0.2756732547658645,0.10573945038521812
214.0,0.284936452102903,0.10888164970350701
214.5,0.26214639676320917,0.10110973178529115
215.0,0.22211283458022718,0.08711130506636312
215.5,0.24448103588436335,0.09498828296668728
216.0,0.30487000927319274,0.11556724955381321
216.5,0.24168806479936625,0.09401250666871333
217.0,0.2561548928611244,0.09904319431146484
217.5,0.1652527873231571,0.06642015045261172
218.0,0.1739090866337654,0.06963446428626835
218.5,0.19056089720966682,0.07575161447900837
219.0,0.260047349563309,0.1003868651712886
219.5,0.2155560636479538,0.0847749940896327
220.0,0.2818279364111392,0.10782973245088032
220.5,0.2683782135863186,0.10324877372047064
221.0,0.2695545415790041,0.10365136342004061
221.5,0.2782027645808651,0.10659975253417371
222.0,0.27420331168521944,0.10523872948934986
222.5,0.26231337312349806,0.10116718321537733
223.0,0.2645958164967588,0.10195174075777994
223.5,0.24396407869287584,0.09480783963879723
224.0,0.21792772504521804,0.08562151691314258
