Frequency (Hz),Power,Log Power
0.0,0.010920641240516338,0.004717064172525788
0.1,0.01092065939131838,0.004717071970163746
0.2,0.010920711216173884,0.00471709423427319
0.30000000000000004,0.010920800585592128,0.004717132627633797
0.4,0.010920925516868723,0.004717186298466057
0.5,0.010921084142218776,0.0047172544443586165
0.6000000000000001,0.010921279504267762,0.004717338372424792
0.7000000000000001,0.010921509431275277,0.004717437149670196
0.8,0.010921776811007061,0.0047175520166757995
0.9,0.010922077425894457,0.004717681161551665
1.0,0.01092241362940351,0.004717825595339145
1.1,0.010922786188911042,0.004717985647689629
1.2000000000000002,0.010923193562263725,0.004718160656074027
1.3,0.010923636821377845,0.004718351080971111
1.4000000000000001,0.010924113639177179,0.004718555922645306
1.5,0.01092462782465162,0.004718776817423076
1.6,0.010925176759507077,0.004719012640458159
1.7000000000000002,0.010925760226097946,0.004719263298225388
1.8,0.010926379326470255,0.004719529264138695
1.9000000000000001,0.010927032798010008,0.004719809995750691
2.0,0.010927723418440389,0.004720106686342426
2.1,0.0109284466736746,0.004720417396631164
2.2,0.01092920581257458,0.004720743522295696
2.3000000000000003,0.010930000393499943,0.004721084873573086
2.4000000000000004,0.01093082924053087,0.004721440945253725
2.5,0.010931693984966217,0.00472181243810473
2.6,0.010932591325645129,0.004722197933914764
2.7,0.010933526072383296,0.004722599498931259
2.8000000000000003,0.010934493922868084,0.004723015284848766
2.9000000000000004,0.010935496561841142,0.004723446015385691
3.0,0.01093653401545088,0.0047238917017309225
3.1,0.010937605218617667,0.004724351886284775
3.2,0.010938712414978829,0.004724827532857105
3.3000000000000003,0.01093985255566056,0.004725317331616743
3.4000000000000004,0.010941028074651128,0.004725822328143372
3.5,0.010942236829324704,0.00472634160192517
3.6,0.010943480649826127,0.004726875939128903
3.7,0.01094475822089964,0.004727424774674643
3.8000000000000003,0.010946069139001527,0.004727987935148153
3.9000000000000004,0.010947415607277466,0.004728566366946594
4.0,0.010948794205616971,0.004729158600760272
4.1000000000000005,0.010950207613150192,0.004729765787461301
4.2,0.010951655515533858,0.0047303877919482405
4.3,0.010953132177027815,0.004731022150145891
4.4,0.010954649790927,0.004731674100099264
4.5,0.01095619583647478,0.004732338262964442
4.6000000000000005,0.010957779778219393,0.004733018704533822
4.7,0.010959388103448866,0.004733709619852558
4.800000000000001,0.010961040707197583,0.004734419555494557
4.9,0.010962722722791099,0.004735142124865305
5.0,0.010964429293714287,0.004735875241618994
5.1000000000000005,0.01096618429661341,0.004736629162717611
5.2,0.010967957289332511,0.00473739081062544
5.300000000000001,0.01096976577595872,0.004738167704743799
5.4,0.01097160936913073,0.00473895967858772
5.5,0.010973488170311687,0.004739766775661158
5.6000000000000005,0.010975395565759405,0.004740586154750762
5.7,0.010977352373220103,0.004741426758650345
5.800000000000001,0.010979317209374853,0.004742270809873254
5.9,0.010981321923412885,0.0047431319900838815
6.0,0.010983366234070304,0.004744010178355927
6.1000000000000005,0.010985446832128636,0.004744903953027359
6.2,0.010987516488356507,0.004745793025527875
6.300000000000001,0.010989678377928762,0.004746721717220439
6.4,0.010991814874825565,0.004747639498927097
6.5,0.010994022120927578,0.004748587670555914
6.6000000000000005,0.010996239664440743,0.004749540263582094
6.7,0.010998510780560149,0.004750515867695998
6.800000000000001,0.01100079763204725,0.004751498229042644
6.9,0.011003123876514023,0.004752497510126877
7.0,0.011005464001221496,0.004753502751403848
7.1000000000000005,0.011007898996258402,0.004754548743410884
7.2,0.011010286285650693,0.0047555742402312084
7.300000000000001,0.011012713040992267,0.004756616687774212
7.4,0.011015142674354453,0.004757660369105607
7.5,0.011017594610668827,0.004758713628423919
7.6000000000000005,0.011020216697938352,0.004759839975345682
7.7,0.011022755029702094,0.004760930341370253
7.800000000000001,0.011025352074620794,0.004762045925389717
7.9,0.011027999492656282,0.004763183144685342
8.0,0.011030661680970645,0.004764326705667881
8.1,0.01103331947112464,0.004765468374387345
8.200000000000001,0.01103596940613363,0.0047666066658970715
8.3,0.011038706047442925,0.004767782199356767
8.4,0.011041295529467659,0.004768894517122122
8.5,0.011044170858745834,0.0047701296178732505
8.6,0.0110465839161255,0.004771166146527606
8.700000000000001,0.011049319178706156,0.004772341075415517
8.8,0.01105189224709264,0.004773446331072792
8.9,0.011058866552306706,0.0047764421138275035
9.0,0.011059354412831296,0.004776651671440405
9.1,0.011061215165613697,0.004777450945902862
9.200000000000001,0.011063846373386145,0.004778581161870211
9.3,0.011068463358341643,0.004780564346728632
9.4,0.011070408681575623,0.004781399940324848
9.5,0.011073864980947496,0.004782884554221629
9.600000000000001,0.01107655047182718,0.004784038072635819
9.700000000000001,0.011079785806961751,0.004785427765579828
9.8,0.011082601087846106,0.004786637026478986
9.9,0.01108715081954936,0.004788591287115081
10.0,0.01108983671556927,0.004789744964392157
10.100000000000001,0.011094576054850293,0.0047917806530114754
10.200000000000001,0.011096803509899944,0.004792737408585222
10.3,0.01109710568381682,0.004792867200752071
10.4,0.011096006282400303,0.004792394976842602
10.5,0.011110463501448831,0.004798604719072481
10.600000000000001,0.011114738704818394,0.004800441010332702
10.700000000000001,0.011118690421182926,0.004802138350102059
10.8,0.011115036938062135,0.004800569107598008
10.9,0.01112412706589239,0.004804473484910805
11.0,0.011128080332417219,0.004806171474737134
11.100000000000001,0.011134328288014155,0.004808855055886
11.200000000000001,0.011132826848651156,0.004808210168954481
11.3,0.01113730642872551,0.004810134201629903
11.4,0.011134435521496313,0.004808901113967376
11.5,0.011148060058818571,0.004814752978274666
11.600000000000001,0.01115007919850748,0.004815620210665483
11.700000000000001,0.011153617460763647,0.0048171399109715055
11.8,0.011156143787905828,0.004818224977125407
11.9,0.011162098809257231,0.004820782668450287
12.0,0.011163246192806847,0.00482127546981423
12.100000000000001,0.01116576608654537,0.004822357762496574
12.200000000000001,0.01116759227400422,0.00482314210710821
12.3,0.01117396725518946,0.004825880140293472
12.4,0.011177456789828758,0.0048273788764877
12.5,0.011180340371639421,0.0048286173553268525
12.600000000000001,0.011186269702844424,0.004831163951785526
12.700000000000001,0.011189977736763945,0.004832756512687065
12.8,0.01119425838424124,0.00483459499772388
12.9,0.011195415454299302,0.004835091943636787
13.0,0.011202083004782535,0.004837955555152248
13.100000000000001,0.011205674353727612,0.004839497977073625
13.200000000000001,0.011211632511898278,0.00484205689031772
13.3,0.011211542893663506,0.004842018401137672
13.4,0.011216057533710591,0.004843957341507987
13.5,0.011223766480861612,0.004847268147762154
13.600000000000001,0.011224924126339518,0.004847765326301612
13.700000000000001,0.011235702911249278,0.00485239450597056
13.8,0.011230702024920432,0.004850246774535382
13.9,0.01124441854510743,0.004856137585223368
14.0,0.01124321326909099,0.00485561996057645
14.100000000000001,0.011246823594790293,0.004857170469602944
14.200000000000001,0.011252675282817684,0.004859683553854947
14.3,0.011254692544309459,0.004860549889917206
14.4,0.011262306241535904,0.004863819663861588
14.5,0.011262958378631687,0.004864099729131518
14.600000000000001,0.011272555096076204,0.004868221092047317
14.700000000000001,0.011277083155687099,0.0048701656784897115
14.8,0.011278184789398892,0.004870638776505477
14.9,0.011285833658476583,0.004873923578967151
15.0,0.011274349328336038,0.0048689916305876225
15.100000000000001,0.011286529334058923,0.004874222335216464
15.200000000000001,0.011285976238372951,0.00487398480958641
15.3,0.01130510436861457,0.004882199264295439
15.4,0.011289874804639891,0.004875659036850805
15.5,0.011296645222874433,0.0048785665567519934
15.600000000000001,0.011325983697799816,0.004891165582972999
15.700000000000001,0.011316760472844767,0.004887204828445359
15.8,0.011326542077214391,0.004891405368200989
15.9,0.011318491686209388,0.004887948270853444
16.0,0.011337168287702957,0.004895968563313605
16.1,0.011360617969505722,0.004906038349792819
16.2,0.011346240697871749,0.0048998644747116436
16.3,0.011362361404601999,0.004906787008160277
16.400000000000002,0.011347025725873627,0.004900201582996958
16.5,0.011356196752245059,0.0049041398039898045
16.6,0.011360363311799229,0.004905928995672486
16.7,0.011381690271891056,0.004915087040384745
16.8,0.01137100123504845,0.00491049706778245
16.900000000000002,0.011372755907478207,0.004911250543897279
17.0,0.011386061438529074,0.004916964046332416
17.1,0.011370131564135025,0.004910123620807271
17.2,0.011386559738884092,0.004917178019066901
17.3,0.01139282825598236,0.004919869743534401
17.400000000000002,0.011424727700157577,0.004933567224596348
17.5,0.011417620307275554,0.00493051537874941
17.6,0.011432030765354925,0.0049367030679059514
17.7,0.011304295163817287,0.004881851759554067
17.8,0.011466837610311005,0.00495164837331373
17.900000000000002,0.01141583734725332,0.004929749789574282
18.0,0.011380724343868626,0.004914672263832603
18.1,0.011436151549913804,0.004938472470391686
18.2,0.011497775449521656,0.004964931979725262
18.3,0.011371386386871553,0.00491066245642758
18.400000000000002,0.01152008717783448,0.00497451158914683
18.5,0.011525421823479489,0.004976802004420468
18.6,0.011685686712909505,0.005045605657162627
18.7,0.011570506529213953,0.004996158515051093
18.8,0.011320958732079832,0.004889007702783178
18.900000000000002,0.011539146410148509,0.004982694562028765
19.0,0.01130871484407174,0.004883749742743917
19.1,0.011527835577933113,0.004977838339213982
19.200000000000003,0.011621391109061662,0.005018004087161457
19.3,0.011226416047819163,0.004848406066825937
19.400000000000002,0.011434045161357357,0.004937568019944687
19.5,0.011239736773534183,0.004854126921699032
19.6,0.01163146286831486,0.005022327925833615
19.700000000000003,0.011174135939141105,0.004825952589254451
19.8,0.011595205028989093,0.005006762117220596
19.900000000000002,0.01106589255420978,0.00477946008177687
20.0,0.010936772102372903,0.0047239939829531955
20.1,0.012058126066224565,0.0052054562833070694
20.200000000000003,0.01136115233797532,0.004906267816129715
20.3,0.011513554917449554,0.004971706964863314
20.400000000000002,0.012003463406355525,0.005181998803874136
20.5,0.011770143241296334,0.005081859479675019
20.6,0.011198935401206159,0.004836603709645812
20.700000000000003,0.012306083354340469,0.005311846706546011
20.8,0.01130770067427562,0.004883314219386351
20.900000000000002,0.011611165366657584,0.005013614098986032
21.0,0.011460458444807399,0.004948909336292698
21.1,0.011936924029250355,0.0051534429387944825
21.200000000000003,0.011211190016475515,0.004841866847643927
21.3,0.011852910270027356,0.005117385131370897
21.400000000000002,0.011093803251630152,0.0047914487114599225
21.5,0.011338679384320562,0.004896617467015508
21.6,0.011316509394398652,0.004887097006641617
21.700000000000003,0.011964296271244344,0.0051651901659187675
21.8,0.011931979500645687,0.005151320882879767
21.900000000000002,0.010907813928795423,0.004711553486706889
22.0,0.010616789657824114,0.0045865090171697325
22.1,0.013387993187801319,0.005775754382149699
22.200000000000003,0.011920599820736788,0.005146436997323301
22.3,0.011570517972446712,0.0049961634279393225
22.400000000000002,0.01102361833129675,0.00476130118065833
22.5,0.011884473571721087,0.005130932114163077
22.6,0.010704423866195238,0.004624166617446951
22.700000000000003,0.011447152915895367,0.004943196255029858
22.8,0.011276209323117913,0.004869790409601303
22.900000000000002,0.011661454294388049,0.005035203086655275
23.0,0.013004297680532073,0.005611287862729389
23.1,0.011164351424904684,0.004821750166596177
23.200000000000003,0.012416130002733663,0.005359055802076143
23.3,0.013271838100582998,0.005725972457526354
23.400000000000002,0.011804508788687785,0.005096610373679452
23.5,0.011872893379518936,0.0051259619397192365
23.6,0.011977686821876382,0.0051709368150794945
23.700000000000003,0.011867152188348043,0.005123497821216914
23.8,0.011794879445859725,0.005092477173720112
23.900000000000002,0.012156114521777088,0.00524750306345181
24.0,0.011863299147043082,0.005121844088550924
24.1,0.012380981585410684,0.005343977981582294
24.200000000000003,0.011999227644791626,0.005180181051474879
24.3,0.011224461217810826,0.004847566519230188
24.400000000000002,0.011815388321171901,0.0051012801448457575
24.5,0.01137685474968709,0.004913010627838638
24.6,0.012146285961274535,0.005243285818448952
24.700000000000003,0.012377061109405719,0.005342296159794625
24.8,0.014306936687296228,0.006169395567965405
24.900000000000002,0.011376569099632895,0.00491288796707251
25.0,0.013109074841385437,0.005656205529673185
25.1,0.01224712473387131,0.005286551838092755
25.200000000000003,0.012577573184852186,0.005428304297193053
25.3,0.011882956016062545,0.005130280788285493
25.400000000000002,0.011645198075987047,0.005028224425323805
25.5,0.01182264113923645,0.005104393210342502
25.6,0.012325411379204548,0.0053201386397365
25.700000000000003,0.012261275741116991,0.005292623143461284
25.8,0.012776861418651165,0.005513770602791525
25.900000000000002,0.011690179387748073,0.005047534259676855
26.0,0.02027271561287876,0.008716272796451974
26.1,0.012642262772028293,0.005456048772393252
26.200000000000003,0.012989569027093301,0.005604973358999147
26.3,0.011172643219564612,0.00482531147282305
26.400000000000002,0.012716628502030418,0.005487941022538369
26.5,0.013158516036858777,0.005677399214528773
26.6,0.010310067943895546,0.004454680843021897
26.700000000000003,0.01137103126899115,0.0049105099647068825
26.8,0.012140027061871795,0.005240600224562525
26.900000000000002,0.011286619215273078,0.004874260934478403
27.0,0.01339301941262686,0.005777908400460443
27.1,0.01279912932729193,0.005523319323640107
27.200000000000003,0.01275716149847747,0.0055053228882343845
27.3,0.012092753502267012,0.005220315357844446
27.400000000000002,0.01242736151657551,0.005363873739368994
27.5,0.012602413374340288,0.005438958122824659
27.6,0.012104340711183855,0.005225287463483438
27.700000000000003,0.01419131807201373,0.006119888474174113
27.8,0.01229833552702703,0.005308522759786213
27.900000000000002,0.011252934892875896,0.004859795046466013
28.0,0.012376039287199724,0.005341857813266895
28.1,0.012291455001801264,0.005305570878716626
28.200000000000003,0.013851147124923264,0.005974196883247452
28.3,0.01260008687554577,0.005437960310913522
28.400000000000002,0.012064615602918568,0.005208241064998725
28.5,0.013591068052181594,0.00586277481072255
28.6,0.013346853355301929,0.005758123262544782
28.700000000000003,0.012669846445232943,0.005467878491881453
28.8,0.010838623472882156,0.004681827668810662
28.900000000000002,0.013586239131646085,0.005860705752890596
29.0,0.015182526998168383,0.0065441342111734165
29.1,0.012891167369772773,0.0055627840079180806
29.200000000000003,0.014426031833174846,0.006220385388250749
29.3,0.014028220759911697,0.006050041732777813
29.400000000000002,0.010988621864471759,0.0047462678666875735
29.5,0.012261594155275548,0.005292759753932911
29.6,0.014326348375537245,0.006177706965742172
29.700000000000003,0.009680696897051552,0.004184053485396097
29.8,0.01428753643058879,0.006161088905842935
29.900000000000002,0.010728404751281322,0.0046344709579296236
30.0,0.012593837827071925,0.005435280145585925
30.1,0.011264083373556862,0.004864582866393078
30.200000000000003,0.011987734380147707,0.005175248745578098
30.3,0.012430922514653138,0.005365401275224056
30.400000000000002,0.013211284428890219,0.0057000180094576155
30.5,0.01192260835518002,0.0051472990161021024
30.6,0.01207072178508346,0.005210861325779499
30.700000000000003,0.013608577263051674,0.005870276936801857
30.8,0.01448534446748528,0.006245777477916576
30.900000000000002,0.012307279596620936,0.005312359912110072
31.0,0.014563563977470557,0.006279261443176599
31.1,0.01341278497877508,0.005786378946865579
31.200000000000003,0.012560233385145326,0.005420867194092511
31.3,0.010545775823832626,0.00455599102046746
31.400000000000002,0.012694353568167576,0.005478388511026009
31.5,0.014824567517166487,0.00639097235338939
31.6,0.014671859666371561,0.006325616064823974
31.700000000000003,0.016324540824196716,0.007032412458393549
31.8,0.014400789600764833,0.006209578588841984
31.900000000000002,0.014360705318789066,0.006192417002801493
32.0,0.013416683812630925,0.005788049775176979
32.1,0.015500418017643527,0.006680106512581862
32.2,0.009287111234137118,0.004014727275204039
32.300000000000004,0.01316106382578822,0.005678491333150222
32.4,0.012288798999883888,0.005304431396125779
32.5,0.014835463453933244,0.00639563524780594
32.6,0.011130752768781775,0.004807319324208633
32.7,0.013995619304041551,0.006036078748607825
32.800000000000004,0.012012878077147878,0.005186039027750058
32.9,0.016499573149720937,0.007107200604397041
33.0,0.011953586950638057,0.005160594130790212
33.1,0.013613595555032705,0.005872427087431804
33.2,0.017265576771481005,0.00743434866452797
33.300000000000004,0.015677291011848685,0.006755742401291903
33.4,0.017378081058395962,0.007482376721784404
33.5,0.011498246364978034,0.004965134170912941
33.6,0.01632707135741453,0.007033493801213148
33.7,0.012375627352069585,0.005341681099098129
33.800000000000004,0.014476159446561145,0.006241845413265947
33.9,0.013587867287651247,0.005861403373451618
34.0,0.017615964838336003,0.00758391177407725
34.1,0.0209912445665456,0.009022017843286744
34.2,0.016051137508949664,0.006915566391863629
34.300000000000004,0.015460589953173448,0.006663073089922794
34.4,0.013277151635911099,0.005728249865162801
34.5,0.019238769864421027,0.008275935024580223
34.6,0.01576181925503098,0.006791884414522518
34.7,0.012771251876769824,0.005511365137259374
34.800000000000004,0.01413615975571099,0.00609626807493476
34.9,0.008829020102205865,0.0038175667142886036
35.0,0.016650931045392215,0.00717186271265548
35.1,0.01934003588668582,0.008319082019521987
35.2,0.018982213914966344,0.008166603568744182
35.300000000000004,0.028945186899792624,0.012392240009269164
35.4,0.018279046484923272,0.007866807216862793
35.5,0.0072408293910442584,0.003133321964614007
35.6,0.01610751620515024,0.006939663877183868
35.7,0.011330559940835315,0.004893130758033865
35.800000000000004,0.008173933020177966,0.0035354642865714956
35.9,0.0185140216658563,0.007967012217078035
36.0,0.026349568890731995,0.011295304229543633
36.1,0.011089081913575705,0.0047894207533762875
36.2,0.006213475567543083,0.0026901292543247317
36.300000000000004,0.012795263825311431,0.005521661769506273
36.4,0.011274646204506994,0.0048691191248368595
36.5,0.023787991487754144,0.010210031190794179
36.6,0.01714641890001576,0.007383474400886134
36.7,0.015118183234516669,0.006516607114948316
36.800000000000004,0.016246213885818282,0.006998940603049646
36.9,0.029244696049836566,0.01251863764938911
37.0,0.009480336941440213,0.004097864001799987
37.1,0.015131567575292916,0.006522333253164416
37.2,0.015096256572852934,0.006507226206231731
37.300000000000004,0.012728179077967885,0.0054928943556272185
37.4,0.015463322779353285,0.006664241869631818
37.5,0.009829516210832608,0.004248060497069762
37.6,0.01906178627723045,0.008200516318280154
37.7,0.014244204780391883,0.006142534898338084
37.800000000000004,0.008496223047053513,0.0036742760610354694
37.9,0.019001936845739923,0.008175009482989432
38.0,0.017521488372001973,0.007543589575728125
38.1,0.015476782702862114,0.006669998386518801
38.2,0.006449431947440823,0.0027919590777355924
38.300000000000004,0.022507277745445715,0.009666407802547747
38.400000000000006,0.005720093303659054,0.0024771269939277535
38.5,0.022806003605002782,0.009793268557340536
38.6,0.012874510632999969,0.005555642087264929
38.7,0.011184690691440203,0.00483048578150601
