Frequency (Hz),Power,Log Power
0.0,0.002116002259972216,0.0009179972052833956
0.2,0.002116049330304093,0.0009180176045035053
0.4,0.002116167875834134,0.0009180689794580809
0.6000000000000001,0.002116374446740352,0.0009181585026074878
0.8,0.002116658254291956,0.0009182814983386298
1.0,0.0021170247950667775,0.0009184403487134671
1.2000000000000002,0.0021174732611217322,0.0009186347035488702
1.4000000000000001,0.0021180049066833544,0.0009188651063495743
1.6,0.0021186180753771104,0.0009191308392247728
1.8,0.002119312258074441,0.0009194316814654251
2.0,0.00212009175474786,0.000919769496502147
2.2,0.00212095072834425,0.0009201417546138665
2.4000000000000004,0.0021219026020515394,0.0009205542729849915
2.6,0.002122926981575193,0.0009209982131343481
2.8000000000000003,0.0021240462298549637,0.0009214832664818736
3.0,0.002125243229394282,0.0009220020146211176
3.2,0.0021265288563699107,0.0009225591708716858
3.4000000000000004,0.0021278999426044315,0.0009231533620854573
3.6,0.002129359818122434,0.0009237860312487175
3.8000000000000003,0.0021309050274345,0.0009244556806843558
4.0,0.002132538620503004,0.0009251636319844855
4.2,0.002134261629313369,0.0009259103321927498
4.4,0.002136076092781207,0.0009266966647116773
4.6000000000000005,0.0021379799131116908,0.000927521720209045
4.800000000000001,0.0021399737168374565,0.0009283857699827676
5.0,0.00214206560165032,0.0009292923230658263
5.2,0.0021442405113252447,0.000930234854347434
5.4,0.0021465183705739323,0.000931221998251494
5.6000000000000005,0.002148886033914294,0.0009322480577050324
5.800000000000001,0.0021513533430192675,0.000933317297441087
6.0,0.0021539220101612004,0.0009344304591727676
6.2,0.0021565789240339077,0.0009355818606480022
6.4,0.0021593342674604867,0.0009367759143777717
6.6000000000000005,0.002162197584285621,0.0009380167559068009
6.800000000000001,0.002165135076091618,0.0009392897380801254
7.0,0.0021682445099415063,0.0009406372284493767
7.2,0.0021714334525659517,0.0009420191700435246
7.4,0.002174661888288037,0.0009434182216569599
7.6000000000000005,0.0021780838426481907,0.0009449011301909798
7.800000000000001,0.002181563723234941,0.0009464091359407121
8.0,0.0021851805430817173,0.0009479764787495749
8.200000000000001,0.002188760976710895,0.0009495280480807717
8.4,0.002192661121447783,0.0009512181568786358
8.6,0.0021966440023951143,0.0009529441122237963
8.8,0.002200828214253092,0.0009547573056111159
9.0,0.0022048926174583813,0.0009565185736677387
9.200000000000001,0.0022090350321200014,0.0009583136398508619
9.4,0.002213412880709553,0.0009602107204658516
9.600000000000001,0.002218184094313035,0.0009622782509747828
9.8,0.002222885937200674,0.0009643157111440418
10.0,0.002228003105097951,0.0009665331341728404
10.200000000000001,0.0022332144017793497,0.0009687913344039867
10.4,0.002237100319766657,0.0009704752034307908
10.600000000000001,0.0022415308800654765,0.000972395072128309
10.8,0.0022472662215665714,0.0009748803214042783
11.0,0.002254356732423468,0.0009779527756279922
11.200000000000001,0.0022590168778770336,0.000979972094114043
11.4,0.002265824430304671,0.0009829219028603712
11.600000000000001,0.002270027131776752,0.000984742982844577
11.8,0.0022790291787428457,0.000988643649990557
12.0,0.002277815458038948,0.0009881177360403454
12.200000000000001,0.002287787910199627,0.0009924388527323654
12.4,0.0022964159251191683,0.0009961773829094789
12.600000000000001,0.0023004523389012353,0.000997926355244018
12.8,0.0023074914711327145,0.0010009763843482123
13.0,0.002317515883681593,0.0010053198870366338
13.200000000000001,0.0023231174492661984,0.0010077469844254807
13.4,0.0023285998365721447,0.0010101224300294114
13.600000000000001,0.0023381923167873934,0.0010142786930468779
13.8,0.0023502088378401544,0.0010194851967429066
14.0,0.0023488698033837935,0.0010189050246046535
14.200000000000001,0.00235929612599604,0.0010234224845063033
14.4,0.0023667549071717743,0.0010266541554916951
14.600000000000001,0.002373828083563038,0.0010297187330258939
14.8,0.0023833111149828036,0.0010338273885202491
15.0,0.0023908828360596312,0.001037107914269333
15.200000000000001,0.0023954903169729406,0.0010391041404637007
15.4,0.0024083727801481746,0.0010446855170496362
15.600000000000001,0.002414927878626724,0.001047525511074651
15.8,0.002439603991032673,0.0010582162612342032
16.0,0.0024570119479204707,0.0010657579764105874
16.2,0.0024101648462579563,0.0010454619308826636
16.400000000000002,0.0024459034506654617,0.0010609454151408574
16.6,0.00245248891448603,0.0010637984580771063
16.8,0.002464358315761853,0.001068940631913073
17.0,0.0024733749609842206,0.0010728468672045002
17.2,0.002508098306773155,0.0010878895572960677
17.400000000000002,0.0025460972814486493,0.0011043507033916037
17.6,0.0025054901768885394,0.0010867596932159088
17.8,0.002546440281121306,0.001104499287920589
18.0,0.0025372369022959597,0.0011005124451925895
18.2,0.002483101122235231,0.0010770604431218386
18.400000000000002,0.002418519899667425,0.0010490817450037567
18.6,0.002599655956927576,0.0011275512484757435
18.8,0.0022909664722581516,0.0009938161315839486
19.0,0.0026663451998842607,0.0011564379599766912
19.200000000000003,0.0026543469353620475,0.0011512410055993896
19.400000000000002,0.0025741199661700963,0.0011164897235249622
19.6,0.002889221035458611,0.0012529635786805565
19.8,0.0040627710546207434,0.0017608644728298786
20.0,0.0022318484684759714,0.0009681994385338283
20.200000000000003,0.002301008375208542,0.0009981672844309834
20.400000000000002,0.0016767839799512441,0.0007276081793033001
20.6,0.0016590531071660221,0.0007199205813803259
20.8,0.0038267503744085344,0.0016587647522930467
21.0,0.002655601039190189,0.0011517842137681179
21.200000000000003,0.0033594191123157992,0.0014565319996958622
21.400000000000002,0.0029302214655378,0.0012707181782863535
21.6,0.0030077612791294555,0.001304293606317665
21.8,0.0038101847787742767,0.001651597772399888
22.0,0.0016845715341100036,0.0007309845964328676
22.200000000000003,0.0025911584223494645,0.001123870369478436
22.400000000000002,0.002997811424394867,0.0012999853760058474
22.6,0.0035316404551611934,0.0015310699559947624
22.8,0.0033520316896103936,0.0014533344130022246
23.0,0.005066953509604597,0.0021949936681789043
23.200000000000003,0.003506946276319692,0.001520383020848168
23.400000000000002,0.0035519372047707184,0.0015398536124945465
23.6,0.0037300304383241435,0.0016169179313558237
23.8,0.0036950724243408894,0.0016017920145272944
24.0,0.0032936311996604553,0.001428055400367508
24.200000000000003,0.0037892040434606136,0.0016425204458933136
24.400000000000002,0.003630625075596583,0.0015739050323824082
24.6,0.0038618062191200803,0.0016739310089001506
24.8,0.005641018099540556,0.0024429790484126477
25.0,0.0035948319972805244,0.0015584162527339618
25.200000000000003,0.00419646176664683,0.0018186868272863721
25.400000000000002,0.0017011347544798774,0.0007381657549953804
25.6,0.002173905895213698,0.0009430906103563803
25.8,0.0017513370917929883,0.0007599307815030042
26.0,0.005327672460665277,0.002307637027791302
26.200000000000003,0.003841899049766873,0.001665318608795498
26.400000000000002,0.002995592869401538,0.0012990247485287964
26.6,0.002947674822794186,0.001278275863389051
26.8,0.003261857171615012,0.0014143011980749256
27.0,0.0031576998414900703,0.0013692109739435836
27.200000000000003,0.002961361136338481,0.0012842022442402339
27.400000000000002,0.0030387417384909504,0.0013177076947032897
27.6,0.0030641706962431592,0.0013287177540222282
27.8,0.004390468355783949,0.0019025826150301142
28.0,0.0038910306847156077,0.0016865740234309294
28.200000000000003,0.005004145190911223,0.002167853029967011
28.400000000000002,0.0034310208534019597,0.0014875230194278906
28.6,0.002849927492372019,0.0012359474388185393
28.8,0.003427364082004048,0.001485940331130982
29.0,0.004957021354957942,0.0021474888336182867
29.200000000000003,0.002279501541885802,0.00098884832818103
29.400000000000002,0.0063271083361137095,0.0027391718274789685
29.6,0.0025464044141054847,0.0011044837506380275
29.8,0.006096053755781162,0.002639445555601408
30.0,0.009734150496923076,0.004207044901446589
30.200000000000003,0.004935125530734914,0.002138026399873357
30.400000000000002,0.0051513252611991335,0.0022314495959301585
30.6,0.004311908926588559,0.0018686124987955719
30.8,0.004610203698378879,0.001997584919883504
31.0,0.004997395494589739,0.002164936260195758
31.200000000000003,0.005359218036896654,0.0023212642809967944
31.400000000000002,0.0041605604160458685,0.0018031599480629456
31.6,0.005704684371877772,0.0024704729901399865
31.8,0.003798846282480782,0.0016466921893931613
32.0,0.003675837327590217,0.0015934689922722763
32.2,0.018894533086891322,0.008129232025169537
32.4,0.004350528467468916,0.0018853124212791154
32.6,0.004467734169700927,0.0019359907635975644
32.800000000000004,0.004705662043267337,0.002038849743572692
33.0,0.003353215746037677,0.001453846923918631
33.2,0.0027677075842515073,0.0012003398017546858
33.4,0.008334446065049388,0.003604603527976479
33.6,0.0038513148617854505,0.0016693921745912848
33.800000000000004,0.0031817955970962477,0.001379642562138232
34.0,0.003328403294453694,0.0014431068935084866
34.2,0.009128062183462772,0.003946283353346506
34.4,0.014703025071075952,0.006338955111633216
34.6,0.021576610738953016,0.009270941084557525
34.800000000000004,0.010678638542504485,0.004613086655413121
35.0,0.009425474016180902,0.004074260458159955
35.2,0.005593761430039743,0.0024225703810506587
35.4,0.003722612021567649,0.0016137081147019681
35.6,0.006807920888111939,0.002946623626888254
35.800000000000004,0.008147763437016143,0.003524190980747833
36.0,0.006465826331453591,0.002799033384994017
36.2,0.0057037353043405525,0.0024700631531418527
36.4,0.0061870457168462,0.002678721646152853
36.6,0.010882650308581992,0.004700742849702388
36.800000000000004,0.047706672861468555,0.0202397099484955
37.0,0.009361126322208976,0.004046574670647722
37.2,0.0030574296364548705,0.001325799082424555
37.4,0.004912970918672307,0.0021284519193095594
37.6,0.0027047619341396428,0.0011730774494382796
37.800000000000004,0.007646021964321067,0.0033079947021288927
38.0,0.005038419028864483,0.002182663600611798
38.2,0.004173526832901809,0.0018087678230936507
38.400000000000006,0.008096366436845833,0.003502049382679964
38.6,0.006456691243423925,0.002795091535977544
38.800000000000004,0.015160678945725533,0.006534787526742026
39.0,0.034115986493153026,0.014569251977427323
39.2,0.04549817165156875,0.019323277667962324
39.400000000000006,0.016980366043097838,0.0073125684572078005
39.6,0.014552116957981169,0.00627436139982742
39.800000000000004,0.013114301580928868,0.00565844609620554
40.0,0.004659294153111476,0.00201880627782629
40.2,0.008357597345502173,0.003614574781032099
40.400000000000006,0.006355633203063439,0.00275148195669952
40.6,0.007094588111120698,0.0030702621777909957
40.800000000000004,0.005224509857945085,0.00226306922245557
41.0,0.01990697313465977,0.0085605610788363
41.2,0.004055878977584067,0.0017578833830163628
41.400000000000006,0.07271138530883069,0.030482890066390683
41.6,0.011154463496793601,0.004817503286643824
41.800000000000004,0.01710184608168089,0.007364442575339602
42.0,0.007184993971790982,0.0031092466035841635
42.2,0.001067017366567544,0.0004631527023259946
42.400000000000006,0.008307669102060955,0.003593070408459394
42.6,0.01019353363519469,0.004404584216381141
42.800000000000004,0.014683726907485376,0.006330695388886542
43.0,0.0026096022029071485,0.0011318596264936543
43.2,0.007224871396098505,0.003126441262555301
43.400000000000006,0.023335218830601814,0.010017920946747114
43.6,0.04747377483840974,0.02014315852564478
43.800000000000004,0.09857792384297245,0.04083086753304628
44.0,0.03763772168696797,0.01604575145566696
44.2,0.02434176911056708,0.01044488210334546
44.400000000000006,0.014800491398026444,0.006380668848667901
44.6,0.024854658748060778,0.010662279655880517
44.800000000000004,0.02328452163404869,0.009996404968688137
45.0,0.003191363874117444,0.0013837848124389996
45.2,0.014865019473599922,0.006408283435415092
45.400000000000006,0.02442507670242684,0.010480200936758985
45.6,0.028944155345632522,0.012391804613380459
45.800000000000004,0.025738256977041924,0.011036553706935267
46.0,0.17379354606478506,0.06959171727829064
46.2,0.01370020545441932,0.0059095345163714605
46.400000000000006,0.024317715897715288,0.010434684041939396
46.6,0.010074876823864366,0.004353569214420566
46.800000000000004,0.026612288619915922,0.011406458490765839
47.0,0.006119003478097128,0.0026493519895360858
47.2,0.014437656816916292,0.006225362229543152
47.400000000000006,0.0035372296146317793,0.0015334887480479421
47.6,0.022827512045300175,0.00980240117749397
47.800000000000004,0.007474737036228076,0.0032341647850374247
48.0,0.030199942108210316,0.012921521139507263
48.2,0.11396874291796794,0.046873005048936364
48.400000000000006,0.18963655618349767,0.07541430109631368
48.6,0.0661826182694556,0.027831598043386988
48.800000000000004,0.04948258384140156,0.02097523586331198
49.0,0.023541009809424834,0.010105248050925624
49.2,0.02994669975814374,0.012814750336364322
49.400000000000006,0.03273180884411081,0.01398755379318712
49.6,0.02875536455680129,0.01231211290206832
49.800000000000004,0.022903935105520603,0.009834849340135876
50.0,0.025036852421262027,0.010739479553227535
50.2,0.02235463315137403,0.009601569482984332
50.400000000000006,0.037049849996470166,0.01579963301203449
50.6,0.2562899515201405,0.09908988606713193
50.800000000000004,0.04052146820714249,0.01725104507404211
51.0,0.019717031630288713,0.008479673084501621
51.2,0.00843926678630867,0.0036497479689050092
51.400000000000006,0.007469035525877103,0.0032317070147336994
51.6,0.03076976140317689,0.013161669630161958
51.800000000000004,0.0073131634157298136,0.0031645092824029086
52.0,0.01031554815076828,0.004457036572441112
52.2,0.013157897164377099,0.005677133932263816
52.400000000000006,0.010400932790723988,0.004493738483217711
52.6,0.05298024248534024,0.022420222410469554
52.800000000000004,0.1419148185767679,0.057633708811915284
53.0,0.25175785179090854,0.09752032424012576
53.2,0.10428126406198225,0.04307970371253758
53.400000000000006,0.05088910512759523,0.02155688960373301
53.6,0.05344766578614851,0.02261296516970554
53.800000000000004,0.019542537033835468,0.008405349990265829
54.0,0.030145245218987326,0.012898462326529215
54.2,0.017418378103507264,0.007499578230320938
54.400000000000006,0.02558138618874373,0.01097013000930287
54.6,0.01474009704780245,0.006354821685819845
54.800000000000004,0.029702192896118265,0.012711637634153138
55.0,0.053986793835901305,0.022835169320430764
55.2,0.35100535704457986,0.13065707110218436
55.400000000000006,0.07143532353373219,0.029965960277364336
55.6,0.04032323444073552,0.017168298071319345
55.800000000000004,0.02762816345419865,0.011835998148942687
56.0,0.017783059117228214,0.007655217815388421
56.2,0.009663655260430358,0.004176723295535755
56.400000000000006,0.014815121689274858,0.0063869299896612925
56.6,0.008640839214659383,0.003736548481554439
56.800000000000004,0.014569909960523332,0.006281977898705523
57.0,0.009789700611037165,0.004230936778753938
57.2,0.07400303607987686,0.031005509064536297
57.400000000000006,0.11050804546687104,0.04552170929530703
57.6,0.23573211720860585,0.09192433432292675
57.800000000000004,0.09313010271182683,0.03867185410638059
58.0,0.08978285912385164,0.03733997273080828
58.2,0.0701681374800653,0.029452016417171798
58.400000000000006,0.023743499190352988,0.01019115699096911
58.6,0.03754877672760846,0.016008522700472077
58.800000000000004,0.05656287853066048,0.02389534803888056
59.0,0.14753090190962231,0.0597643895017839
59.2,0.06893462296650371,0.028951144167486613
59.400000000000006,0.11207968111280246,0.046135905796251306
59.6,0.22490849327128853,0.08810364596445397
59.800000000000004,0.3116516833561608,0.11781852095414548
60.0,0.1533706626793859,0.061968900431479255
60.2,0.05902375196768274,0.02490570064839239
60.400000000000006,0.02845582786846116,0.012185643502842868
60.6,0.015030808183581343,0.006479224141914234
60.800000000000004,0.014186888470277935,0.006117991637001726
61.0,0.0420162901549206,0.017874508473189377
61.2,0.022485827295150633,0.009657296953054038
61.400000000000006,0.04141894046444667,0.01762547199954678
61.6,0.04812367807317355,0.02041253220453113
61.800000000000004,0.038335845778707876,0.016337847132516844
62.0,0.1667483951252994,0.06697721218097245
62.2,0.3025450085616049,0.11479273898286597
62.400000000000006,0.13793576678196287,0.05611774807006996
62.6,0.056949042929837816,0.024054049835481338
62.800000000000004,0.03431723785045213,0.014653762662324172
63.0,0.07673033132635247,0.032106947233384434
63.2,0.05313800843831,0.02248528702201741
63.400000000000006,0.07054133395908255,0.02960344020943063
63.6,0.026116673609621936,0.01119674461985346
63.800000000000004,0.04842298066444967,0.020536531796099357
64.0,0.025550612489054946,0.010957098329262597
64.2,0.029173947133678636,0.012488783796285123
64.4,0.4053290733909158,0.14777803101972634
64.60000000000001,0.05535426626100764,0.02339827011319834
64.8,0.05343542343989983,0.02260791810900385
65.0,0.028563151552746455,0.01223096159117476
65.2,0.013733140019642067,0.005923644277339269
65.4,0.05038765838687906,0.021349610333932092
65.60000000000001,0.034569361586040036,0.01475961278257197
65.8,0.019851923304966834,0.008537119252145018
66.0,0.04032011613298589,0.017166996297184687
66.2,0.00923936474287775,0.003994181557389739
66.4,0.09084131488358986,0.03776157819347657
66.60000000000001,0.19471030360287847,0.07726260921783103
66.8,0.3305351893184316,0.12402636503902188
67.0,0.10693817790380704,0.04412336636654965
67.2,0.11076641546925302,0.045622740184378306
67.4,0.06598180126534688,0.02774979035893674
67.60000000000001,0.07385809023239145,0.030946893373733866
67.8,0.023918246776854408,0.010265282429779707
68.0,0.030578545342754983,0.013081097045840326
68.2,0.05898830961151985,0.02489116586836171
68.4,0.058636599135488326,0.024746904323513386
68.60000000000001,0.04531530711903382,0.019247310052080135
68.8,0.030274420288359603,0.012952917271645926
69.0,0.40369778415157576,0.14727361434405548
69.2,0.10221332494054952,0.04226565701894953
69.4,0.043462819637056734,0.018476979022810053
69.60000000000001,0.043904342112133135,0.018660704033853157
69.8,0.010785297823275015,0.0046589163497174355
70.0,0.011259534411264186,0.004862629278108911
70.2,0.02514057033452489,0.010783421230609228
70.4,0.005836279448196509,0.0025272961089333277
70.60000000000001,0.0828061759614018,0.03455072417485235
70.8,0.046479089432977294,0.01973055476299787
71.0,0.09100903952419549,0.03782834893775848
71.2,0.10782648181651007,0.044471742440308624
71.4,0.3468420015979097,0.12931665150709223
71.60000000000001,0.14611112663713177,0.05922672875310148
71.8,0.11442747835541633,0.04705181191465409
72.0,0.04099570202604235,0.01744893643635125
72.2,0.0689382735198112,0.02895262733812778
72.4,0.02774591827427083,0.011885760641411006
72.60000000000001,0.055205109531264014,0.023336885491171393
72.8,0.09937939834792993,0.0411475943109526
73.0,0.06943995300579262,0.029156404793154636
73.2,0.03599550665665747,0.015357871781365924
73.4,0.1083190722882636,0.04466480676936191
73.60000000000001,0.3438227100866287,0.12834197622533886
73.8,0.11566531932889405,0.047533933160929284
74.0,0.06336711873311553,0.026683227001718223
74.2,0.030220841994945055,0.012930331675249844
74.4,0.057295280983528166,0.02419629382855828
74.60000000000001,0.031773998738143294,0.013584579219756553
74.8,0.022667545333795246,0.009734473699511775
75.0,0.04102773763714141,0.01746230121300154
75.2,0.09133978262277326,0.037959986833847256
75.4,0.02812022373264357,0.012043902062773316
75.60000000000001,0.093727165804617,0.03890899917910474
75.8,0.17169951837214692,0.06881625140522578
76.0,0.28072869624466695,0.10745714051532408
76.2,0.20711552148663373,0.08174883425927774
76.4,0.09740972332224562,0.04036880383389819
76.60000000000001,0.046054583115443165,0.01955434660330529
76.80000000000001,0.03182670884678306,0.013606765400681517
77.0,0.04070291141885119,0.017326769524125447
