Frequency (Hz),Power,Log Power
0.0,0.0004917938981681149,0.00021353087392034806
0.1,0.0004917948205215679,0.00021353127429649243
0.2,0.0004917976447077078,0.0002135325002219809
0.30000000000000004,0.0004918023180764037,0.00021353452884258838
0.4,0.0004918089018001079,0.00021353738671188747
0.5,0.000491817363447116,0.00021354105975210776
0.6000000000000001,0.0004918276849579827,0.00021354554012372685
0.7000000000000001,0.0004918398965264046,0.00021355084093339108
0.8,0.0004918540244180298,0.00021355697358249219
0.9,0.0004918700649619981,0.00021356393647745618
1.0,0.0004918880261653222,0.0002135717330938983
1.1,0.0004919079131032796,0.000213580365635046
1.2000000000000002,0.0004919297532739833,0.0002135898460370162
1.3,0.0004919535796323556,0.00021360018860507114
1.4000000000000001,0.0004919794043774097,0.00021361139863436637
1.5,0.0004920072288170096,0.00021362347669264065
1.6,0.0004920370608777478,0.00021363642622048839
1.7000000000000002,0.0004920689554360478,0.00021365027103878838
1.8,0.0004921028562178671,0.00021366498671994628
1.9000000000000001,0.0004921388790188921,0.00021368062352842803
2.0,0.0004921770069080477,0.00021369717411475446
2.1,0.0004922172762069878,0.00021371465424543273
2.2,0.0004922597028487315,0.0002137330708364778
2.3000000000000003,0.00049230432427275,0.00021375244013958442
2.4000000000000004,0.0004923511451044181,0.00021377276416233076
2.5,0.0004924003306125608,0.00021379411464463342
2.6,0.0004924516275513937,0.0002138163816571925
2.7,0.000492505392258259,0.00021383971987915134
2.8000000000000003,0.0004925614284708201,0.00021386404411655288
2.9000000000000004,0.0004926200132590368,0.00021388947464001854
3.0,0.0004926809626524665,0.0002139159315911786
3.1,0.000492743822824541,0.0002139432179727489
3.2,0.0004928100016390954,0.0002139719449107023
3.3000000000000003,0.000492878363282457,0.00021400161937034477
3.4000000000000004,0.0004929496946778579,0.00021403258293940062
3.5,0.0004930234707146474,0.00021406460767723238
3.6,0.0004930987843232332,0.0002140972998426596
3.7,0.0004931778246262379,0.00021413160969058692
3.8000000000000003,0.000493259835810425,0.00021416720913706023
3.9000000000000004,0.0004933453124558546,0.00021420431286908663
4.0,0.0004934321274114201,0.0002142419975320926
4.1000000000000005,0.0004935223909759474,0.00021428117916478403
4.2,0.0004936131372333107,0.00021432057032141997
4.3,0.0004937099815957634,0.00021436260854101685
4.4,0.0004938119447762857,0.00021440686873373834
4.5,0.0004939154306754321,0.00021445178990367735
4.6000000000000005,0.0004940243051864127,0.00021449905015786668
4.7,0.0004941294734839654,0.00021454470161386748
4.800000000000001,0.0004942441008428416,0.00021459445905386003
4.9,0.0004943579542085626,0.00021464388051321858
5.0,0.0004944760866833956,0.0002146951594420318
5.1000000000000005,0.000494593847868335,0.00021474627719535435
5.2,0.0004947202842157312,0.00021480116065484759
5.300000000000001,0.0004948556409317454,0.0002148599162580584
5.4,0.0004949883499345307,0.00021491752253510228
5.5,0.0004951243531412545,0.00021497655875103808
5.6000000000000005,0.0004952678208103654,0.00021503883512903155
5.7,0.0004954152343290199,0.00021510282431027306
5.800000000000001,0.0004955725621275543,0.0002151711170663966
5.9,0.0004957363926475914,0.0002152422325085296
6.0,0.0004958998472843916,0.00021531318477587647
6.1000000000000005,0.0004960333149182652,0.00021537112029868002
6.2,0.0004962003935110507,0.00021544364562851216
6.300000000000001,0.0004963306613369535,0.0002155001921644525
6.4,0.000496561545684232,0.000215600414207555
6.5,0.0004967448337780458,0.00021567997570082735
6.6000000000000005,0.0004968987521870937,0.0002157467884225593
6.7,0.0004971064933186948,0.00021583696443197754
6.800000000000001,0.0004972747624951248,0.00021591000649092248
6.9,0.0004975045569064138,0.0002160097553216754
7.0,0.0004977002632529469,0.00021609470723574009
7.1000000000000005,0.0004979198243701105,0.00021619001397276753
7.2,0.0004981358996548551,0.00021628380756470283
7.300000000000001,0.0004982831303806135,0.00021634771721610238
7.4,0.000498568949578377,0.0002164717850779041
7.5,0.0004988215458579209,0.00021658143156803438
7.6000000000000005,0.0004990356505782407,0.00021667436969716191
7.7,0.0004993225227257554,0.00021679889452758547
7.800000000000001,0.000499463165230028,0.00021685994430330695
7.9,0.0004997875273271703,0.00021700074262584083
8.0,0.0005000390289397839,0.00021710991381227747
8.1,0.0005002589457445394,0.00021720537472238796
8.200000000000001,0.0005006005495290143,0.00021735365715599655
8.3,0.000500689200505622,0.00021739213852053023
8.4,0.0005011071288080187,0.00021757355160651972
8.5,0.0005013439624740927,0.00021767635563288984
8.6,0.0005016892956345765,0.00021782625674101992
8.700000000000001,0.0005015042741736773,0.0002177459432264568
8.8,0.0005038998238095593,0.0002187857944791385
8.9,0.000502203210910243,0.00021804933533594356
9.0,0.0005039814614604033,0.00021882123140231743
9.1,0.0005037492798271728,0.0002187204469819757
9.200000000000001,0.0005019976105525503,0.00021796008904565104
9.3,0.0005047244227861018,0.00021914373275177675
9.4,0.0005046093641438783,0.00021909378862353533
9.5,0.0005047877310455181,0.00021917121330856872
9.600000000000001,0.0005053862797661579,0.00021943102848580022
9.700000000000001,0.000505550950726955,0.00021950250804476083
9.8,0.0005073479857453473,0.00022028255538245674
9.9,0.000505648461259613,0.00021954483493050826
10.0,0.0005069862781256735,0.0002201255473884814
10.100000000000001,0.000506785841283689,0.00022003854287539997
10.200000000000001,0.000506625505835792,0.00021996894534053303
10.3,0.0005046381743307757,0.0002191062944180087
10.4,0.0005114184979319366,0.00022204945633390617
10.5,0.0005120298902541881,0.00022231484483995414
10.600000000000001,0.0005015599475002913,0.00021777010972472022
10.700000000000001,0.0005242084901349836,0.00022760120460111366
10.8,0.0005187623265308695,0.00022523719859494456
10.9,0.0005097481606027093,0.00022132440824632293
11.0,0.0005139133766227108,0.0002231324131872276
11.100000000000001,0.0005131224629179766,0.00022278910002705227
11.200000000000001,0.0005100426045988913,0.00022145221847929617
11.3,0.0005119856282270798,0.000222295631923062
11.4,0.000512881652688471,0.0002226845710967358
11.5,0.0005166599416487965,0.00022432461689557719
11.600000000000001,0.0005149852344829065,0.00022359767578729577
11.700000000000001,0.0005137718604142503,0.00022307098504316177
11.8,0.0005123867895644151,0.00022246976488968296
11.9,0.0005173130752326472,0.00022460812263835932
12.0,0.0005178314005065513,0.0002248331119963617
12.100000000000001,0.0005185987304533797,0.00022516618655385272
12.200000000000001,0.0005154832908955609,0.0002238138675495425
12.3,0.0005194931032544019,0.00022555440622222742
12.4,0.0005188958326593852,0.00022529514950327795
12.5,0.0005181913345218665,0.00022498934842079426
12.600000000000001,0.0005210776176858631,0.0002262421942502563
12.700000000000001,0.0005209334500159954,0.0002261796156305995
12.8,0.000521719657984131,0.00022652088350075448
12.9,0.0005220453635416779,0.00022666226184427595
13.0,0.0005240093475722473,0.00022751476338964718
13.100000000000001,0.0005229445505196603,0.00022705256985304886
13.200000000000001,0.0005213367899146676,0.0002263546926840879
13.3,0.0005226863996902,0.00022694051495628813
13.4,0.0005242884968559628,0.00022763593287232657
13.5,0.0005268251189096341,0.0002287369951621579
13.600000000000001,0.0005230799833202091,0.00022711135682468037
13.700000000000001,0.0005280957230780185,0.00022928852063328723
13.8,0.0005273894546422701,0.00022898195393720688
13.9,0.0005271200123349269,0.00022886499829534728
14.0,0.0005312970871170675,0.00023067811930455756
14.100000000000001,0.0005305784371291912,0.0002303661792012422
14.200000000000001,0.0005268426742649478,0.00022874461534146714
14.3,0.0005350003954618487,0.00023228558866325797
14.4,0.0005378102184467542,0.00023350522506131123
14.5,0.0005328174661011673,0.00023133806038137382
14.600000000000001,0.0005295026706908059,0.00022989922727669623
14.700000000000001,0.0005366112097685142,0.00023298478179625072
14.8,0.0005379139662711419,0.0002335502579474455
14.9,0.0005438573840700082,0.00023613005612523998
15.0,0.0005321714489784952,0.00023105764802780073
15.100000000000001,0.0005446859856071252,0.00023648971744705228
15.200000000000001,0.0005416756921954298,0.00023518307337348435
15.3,0.0005425808782299794,0.00023557597766886302
15.4,0.0005508315047110321,0.0002391572213337991
15.5,0.0005395689850768195,0.00023426863646194086
15.600000000000001,0.0005567049682307227,0.00024170662235269884
15.700000000000001,0.0005547447106933563,0.00024085576616301446
15.8,0.0005669302139667256,0.0002461448966514677
15.9,0.0005486405625585961,0.00023820623004094048
16.0,0.0005659541632572478,0.0002457212431894296
16.1,0.0005460867421693136,0.0002370977266925963
16.2,0.0005584638116713815,0.00024247005267668187
16.3,0.0005642419647021819,0.0002449780647737813
16.400000000000002,0.0005560780852851165,0.00024143452194300805
16.5,0.0005640224554668271,0.00024488278687342886
16.6,0.0005551000297890645,0.00024100999370128148
16.7,0.0005617618594916289,0.00024390157483210548
16.8,0.0005572491820369203,0.00024194283983800113
16.900000000000002,0.000568029248155489,0.00024662193042807317
17.0,0.0005845949852908323,0.00025381219481820444
17.1,0.000541791038875845,0.00023523314067717174
17.2,0.0005520738253418863,0.0002396964569655892
17.3,0.000565919442653733,0.000245706172751835
17.400000000000002,0.0005628978671219278,0.0002443946594012138
17.5,0.0005916260330576941,0.00025686394529884747
17.6,0.0005825790066285875,0.0002529371770585493
17.7,0.0005723891848887882,0.0002485143478189146
17.8,0.0006139290058096061,0.00026654416827467215
17.900000000000002,0.0005486056611621412,0.00023819108086824232
18.0,0.0005835159005579249,0.0002533438278254903
18.1,0.0005630726187065186,0.00024447051034711856
18.2,0.0006472409514491272,0.0002810022454024439
18.3,0.0006684822930695454,0.0002902211780747984
18.400000000000002,0.0006543248192381392,0.00028407672927227925
18.5,0.0005472376500052313,0.00023759728652444215
18.6,0.0007208165809726974,0.00031293389315587716
18.7,0.0006707125346573996,0.0002911891115639533
18.8,0.0013685726880296436,0.0005939572223216409
18.900000000000002,0.0008924085899768791,0.00038739529448419914
19.0,0.0005033848968153941,0.0002185622770998144
19.1,0.00042503357098366807,0.00018455051719688407
19.200000000000003,0.0006242944850248775,0.00027104305338753316
19.3,0.0006111355198438419,0.00026533171540101436
19.400000000000002,0.0006157524164576307,0.0002673355788659036
19.5,0.0005777389159181254,0.0002508363711724484
19.6,0.0007155446524324527,0.00031064596682623335
19.700000000000003,0.00041984074922216287,0.00018229625564420983
19.8,0.0004114370750185672,0.0001786481026241927
19.900000000000002,0.0017596080134527152,0.0007635165025053206
20.0,0.0006945580317955504,0.00030153801486326265
20.1,0.0009729132791793203,0.00042232545879134533
20.200000000000003,0.0009687047008093971,0.00042049946911577646
20.3,0.0007660578506140174,0.0003325673306906647
20.400000000000002,0.00026098984422916264,0.00011333166061851629
20.5,0.0005267911446379364,0.00022872224809224734
20.6,0.0006604410790580213,0.00028673124213048437
20.700000000000003,0.0007521653682827061,0.0003265384788455243
20.8,0.001200960072395257,0.0005212573903841557
20.900000000000002,0.0006467780848079045,0.0002808013549523306
21.0,0.0006421593359026164,0.00027879674969490337
21.1,0.0004964842238714632,0.00021556685043613605
21.200000000000003,0.000900401279661258,0.00039086336671262373
21.3,0.00038609775352185804,0.0001676477616999562
21.400000000000002,0.0009783081742302496,0.0004246661483405781
21.5,0.000802560244231863,0.00034840769507576687
21.6,0.0005823306773932361,0.0002528293918220504
21.700000000000003,0.0011099228698527785,0.000481766065559273
21.8,0.0009242808298940492,0.00040122467056674096
21.900000000000002,0.001046872794868651,0.00045441326310392463
22.0,0.0007901197631362648,0.00034300916185166783
22.1,0.0015975424925237431,0.0006932502880342204
22.200000000000003,0.0008877571895321524,0.00038537701337537357
22.3,0.0014820330446589898,0.0006431622970391942
22.400000000000002,0.0036233074024404747,0.0015707384922445061
22.5,0.0010975770684072915,0.0004764102635829733
22.6,0.0015391748909885498,0.0006679412544013016
22.700000000000003,0.0017025591538651589,0.0007387833127994914
22.8,0.0014010110355501088,0.0006080255359667603
22.900000000000002,0.00046708215397413055,0.00020280384272478366
23.0,0.0018117541234344535,0.0007861229025076576
23.1,0.0007215988607113284,0.00031327338808336447
23.200000000000003,0.0004621079480511455,0.00020064457572535927
23.3,0.0016340435833594304,0.000709076937778967
23.400000000000002,0.0007938023452419932,0.0003446072213384558
23.5,0.0004679254302313855,0.00020316990181602169
23.6,0.0007611966146916825,0.0003304577337000136
23.700000000000003,0.0014038817844251393,0.0006092705403102582
23.8,0.000624568840436722,0.0002711621300737677
23.900000000000002,0.0012738322372549105,0.0005528662567913042
24.0,0.0018440157228072375,0.0008001083732627401
24.1,0.001145619557710207,0.000497251476119349
24.200000000000003,0.0005225472782758646,0.00022688012685364033
24.3,0.0003074154762283514,0.00013348832783981003
24.400000000000002,0.0011821207989527313,0.0005130853352189009
24.5,0.0012689627726806473,0.0005507541605108294
24.6,0.0006465064540596917,0.00028068346345093637
24.700000000000003,0.0012327512419264498,0.0005350473395083258
24.8,0.004004274080934379,0.0017355616195722323
24.900000000000002,0.005365409416601549,0.002323938821313764
25.0,0.0020117892142795407,0.0008728312723323927
25.1,0.001588523859863947,0.0006893397752123978
25.200000000000003,0.0009610457674034049,0.00041717644290599265
25.3,0.0016013557786333612,0.0006949037325492119
25.400000000000002,0.0005924652009490854,0.00025722817564249336
25.5,0.0010605948391037858,0.0004603663981760157
25.6,0.001202638708971141,0.0005219855378989782
25.700000000000003,0.0015351236807050169,0.0006661845364678786
25.8,0.001436451276600693,0.0006233952316279271
25.900000000000002,0.0018012282655844633,0.0007815598236877719
26.0,0.006092651324955709,0.0026379768494816944
26.1,0.0006491269124457757,0.00028182077729717634
26.200000000000003,0.0009595773159248157,0.00041653931437376097
26.3,0.0012942825059206178,0.0005617363059744798
26.400000000000002,0.0016589000996989139,0.0007198542411385656
26.5,0.0009707469072902126,0.00042138552888627725
26.6,0.0007988371947143361,0.0003467920888282863
26.700000000000003,0.0008262667439063567,0.00035869491901609885
26.8,0.0008632226816129261,0.00037473113233108993
26.900000000000002,0.0007415047940931191,0.00032191210543896007
27.0,0.0013673974043383527,0.0005934475003918347
27.1,0.0009974707470448351,0.0004329801346737796
27.200000000000003,0.0003073412334129494,0.00013345609450256886
27.3,0.0014629666073023718,0.0006348940235366609
27.400000000000002,0.000905139593215857,0.00039291933407637684
27.5,0.0009248528629910869,0.00040147287190545755
27.6,0.0006342186388108264,0.0002753503482208884
27.700000000000003,0.0015425239678340697,0.0006693935022994833
27.8,0.0010913106618022999,0.00047369177300840467
27.900000000000002,0.0002000942217593002,8.689112345479121e-05
28.0,0.0015458441747669394,0.000670833226649734
28.1,0.0019460354856529985,0.0008443311899800844
28.200000000000003,0.001294616177810683,0.000561881030496562
28.3,0.002597392366294496,0.0011265707314516535
28.400000000000002,0.0029948988417627994,0.0012987242362631423
28.5,0.0023348161577618387,0.0010128158637190147
28.6,0.001399873941315961,0.0006075323928340804
28.700000000000003,0.0014459936430901604,0.0006275334646242751
28.8,0.0030710642197008917,0.00133170241741532
28.900000000000002,0.00617436213043109,0.002673247071288282
29.0,0.01005943917123051,0.004346931549489637
29.1,0.0018612706056203758,0.0008075882161747596
29.200000000000003,0.0030393634144154297,0.0013179768670977807
29.3,0.0003738007999426481,0.00016230929096432427
29.400000000000002,0.004663826755835978,0.0020207656285463624
29.5,0.003133909635927796,0.0013589114193316993
29.6,0.0008218078094746284,0.00035676002282383594
29.700000000000003,0.0005436499455004253,0.00023604001565903486
29.8,0.0026518167996553983,0.0011501450891794743
29.900000000000002,0.0017329061838733972,0.0007519402603565976
30.0,0.0006422925109803442,0.00027885454977553595
30.1,0.0014721998024686915,0.0006388980729721053
30.200000000000003,0.0005352388184293183,0.00023238907906269994
30.3,0.0015126772786464783,0.0006564510208239896
30.400000000000002,0.0006212246970416419,0.00026971069114720305
30.5,0.000711741275347247,0.0003089953590900956
30.6,0.0008788116508501485,0.00038149544381810405
30.700000000000003,0.000992381933021,0.00043077228746917835
30.8,0.0007655248013037495,0.00033233600746186763
30.900000000000002,0.0012700908817278765,0.00055124347085235
31.0,0.0019605996593373884,0.000850643999323387
31.1,0.0014795503223005014,0.0006420856586958661
31.200000000000003,0.0008689551310892655,0.00037721854918226566
31.3,0.0010628719149200904,0.0004613542707806149
31.400000000000002,0.0015549768099238851,0.0006747933399025465
31.5,0.001930930466691063,0.0008377838554921337
31.6,0.0006614538417174415,0.000287170788847606
31.700000000000003,0.000486486502125732,0.00021122702800948964
31.8,0.0017075406316034642,0.0007409430586185899
31.900000000000002,0.0019930160222852472,0.000864694471792034
32.0,0.0014167215762685196,0.0006148389379362338
32.1,0.001841248274550206,0.0007989086963188955
32.2,0.0031405472734376406,0.0013617850933033602
32.300000000000004,0.0032175022869489313,0.0013951003211077702
32.4,0.0023499660679763253,0.0010193800103278775
32.5,0.0020544587827745035,0.0008913248307802521
32.6,0.0008265674480077301,0.00035882540531191555
32.7,0.0019478752876807832,0.0008451286532231154
32.800000000000004,0.0014613876970228038,0.0006342093126834583
32.9,0.0013443598906750114,0.0005834559826162192
33.0,0.0024532137684622726,0.0010641124878906954
33.1,0.0012580127065475802,0.0005460046082137692
33.2,0.0027163901062399955,0.0011781138488725917
33.300000000000004,0.0021050050430282577,0.0009132312332496664
33.4,0.005458686259614289,0.0023642303797110457
33.5,0.0013487792158241626,0.0005853726901622161
33.6,0.0025193518390526745,0.0010927646496252479
33.7,0.0007838743159318664,0.00034029893153695575
33.800000000000004,0.00215433431399783,0.0009346091355620405
33.9,0.0017456360897962285,0.0007574591893402635
34.0,0.0013608179186116842,0.0005905939585852036
34.1,0.002060718030481126,0.0008940376057457778
34.2,0.0022069525319701284,0.0009574112140777017
34.300000000000004,0.002548741135154222,0.0011054959969241272
34.4,0.001498350295231038,0.0006502382444048043
34.5,0.0014631907402149907,0.0006349912210162885
34.6,0.0034983182179838365,0.001516648981689245
34.7,0.0038591715228347085,0.0016727911751574039
34.800000000000004,0.0023351086005273906,0.0010129425741343169
34.9,0.005927919715608584,0.0025668622394979914
35.0,0.002253458356859747,0.000977563493483954
35.1,0.005333218229415107,0.002310032754268203
35.2,0.0026219686896487757,0.0011372163115073958
35.300000000000004,0.003075581753158066,0.001333658346067067
35.4,0.008063299373636854,0.0034878036427921943
35.5,0.0015416695276928905,0.0006690229950190692
35.6,0.003291501953711501,0.001427133715310606
35.7,0.008151051595605743,0.0035256074663604364
35.800000000000004,0.009672707322834033,0.004180616912096738
35.9,0.010820050591706156,0.004673847983702146
36.0,0.013918476955433856,0.006003037411798416
36.1,0.018269188977881348,0.007862602984584827
36.2,0.012732317881069051,0.0054946692205048156
36.300000000000004,0.0030679766532218282,0.001330365607695667
36.4,0.011071917667233123,0.004782048108493627
36.5,0.008315649465168978,0.0035965076668006495
36.6,0.004984371987987644,0.002159308311580623
36.7,0.0015220276277581187,0.0006605056735098768
36.800000000000004,0.003515128027083655,0.0015239238779763756
36.9,0.006318323218636881,0.002735380471104656
37.0,0.036294389008975705,0.015483146683802698
