Frequency (Hz),Power,Log Power
0.0,0.0006812797248460511,0.00029577528371752676
0.1,0.0006812756167224031,0.00029577350079677215
0.2,0.0006812631969107725,0.0002957681106132848
0.30000000000000004,0.0006812425726415313,0.0002957591597047219
0.4,0.0006812137612434905,0.0002957466555917372
0.5,0.0006811767388832222,0.0002957305879301716
0.6000000000000001,0.0006811315508009926,0.00029571097635394596
0.7000000000000001,0.0006810779949359301,0.0002956877331683145
0.8,0.0006810163628564512,0.00029566098491312924
0.9,0.0006809464151114808,0.0002956306276661086
1.0,0.0006808681466350764,0.0002955966592280723
1.1,0.0006807816518313133,0.00029555912056933797
1.2000000000000002,0.0006806868912260132,0.00029551799455721314
1.3,0.0006805837868823304,0.0002954732473662871
1.4000000000000001,0.0006804722869711874,0.0002954248565014154
1.5,0.0006803525891547564,0.00029537290774686814
1.6,0.0006802243559967477,0.0002953172546540692
1.7000000000000002,0.0006800879561686456,0.00029525805722488917
1.8,0.0006799431176649135,0.00029519519740764567
1.9000000000000001,0.0006797898513521905,0.00029512867991676836
2.0,0.0006796283113151228,0.00029505857162328246
2.1,0.0006794583822906653,0.0002949848225013923
2.2,0.0006792799248611283,0.0002949073720419586
2.3000000000000003,0.0006790927653353122,0.0002948261448610266
2.4000000000000004,0.0006788974558389908,0.00029474138057903
2.5,0.0006786933424924983,0.0002946527954101903
2.6,0.0006784808179766169,0.00029456055977563494
2.7,0.0006782595587840518,0.00029446453327067353
2.8000000000000003,0.0006780297641807275,0.00029436480237444415
2.9000000000000004,0.0006777913761900273,0.00029426134192247344
3.0,0.0006775442788225937,0.0002941541015726293
3.1,0.0006772886252099039,0.00029404314778136464
3.2,0.0006770241426573884,0.00029392836219603504
3.3000000000000003,0.0006767509528434608,0.00029380979762214115
3.4000000000000004,0.000676468881999681,0.0002936873786410726
3.5,0.0006761779682686115,0.0002935611218034972
3.6,0.0006758779177867318,0.0002934308995687347
3.7,0.0006755698238638628,0.00029329718643130554
3.8000000000000003,0.0006752517235394133,0.0002931591304601627
3.9000000000000004,0.0006749253150120926,0.00029301746867214907
4.0,0.000674589699630174,0.00029287181104731085
4.1000000000000005,0.0006742450906898678,0.00029272225015260494
4.2,0.0006738916406261007,0.00029256885214107536
4.3,0.0006735289474288012,0.0002924114425353561
4.4,0.0006731563584423366,0.00029224973807698745
4.5,0.0006727746661029272,0.00029208408268052103
4.6000000000000005,0.000672384648132125,0.0002919148138747113
4.7,0.0006719849540679407,0.0002917413455510076
4.800000000000001,0.0006715752529393302,0.00029156353406185697
4.9,0.0006711560545636241,0.0002913816006642632
5.0,0.0006707283130513892,0.00029119595944035757
5.1000000000000005,0.0006702875636257741,0.00029100467265621467
5.2,0.0006698419589970857,0.00029081127861137185
5.300000000000001,0.0006693848825293412,0.0002906129056568937
5.4,0.0006689189646712962,0.00029041069541148735
5.5,0.0006684479395929101,0.0002902062685159404
5.6000000000000005,0.0006679585411569126,0.00028999386740284606
5.7,0.0006674628188764639,0.00028977872160708526
5.800000000000001,0.0006669593886158142,0.0002895602304025492
5.9,0.0006664413908403278,0.00028933541671045704
6.0,0.0006659201289844067,0.000289109186273177
6.1000000000000005,0.0006653772812445273,0.0002888735873213748
6.2,0.0006648421947056671,0.00028864135664909076
6.300000000000001,0.0006642819825905017,0.000288398221197393
6.4,0.000663721389405004,0.00028815492022253017
6.5,0.0006631243378884424,0.0002878957959524897
6.6000000000000005,0.0006625501427270507,0.000287646591344445
6.7,0.0006619308758293466,0.0002873778251357929
6.800000000000001,0.0006613485804971603,0.00028712510469607456
6.9,0.0006607178977694956,0.0002868513836063855
7.0,0.0006600822545297808,0.00028657550944219103
7.1000000000000005,0.0006594349045718787,0.0002862945542902038
7.2,0.000658841857583893,0.0002860371669097237
7.300000000000001,0.0006581465922729218,0.00028573541572306737
7.4,0.0006574482088505352,0.0002854323110380254
7.5,0.0006567578630978987,0.0002851326945658789
7.6000000000000005,0.0006562028596037776,0.0002848918177418797
7.7,0.000655382269457605,0.0002845356735261757
7.800000000000001,0.0006547384333819012,0.0002842562421157457
7.9,0.0006540081924661653,0.00028393930990756053
8.0,0.0006532030240777328,0.00028358985812311857
8.1,0.0006525124740100774,0.00028329015170485506
8.200000000000001,0.000651689537255742,0.000282932987720502
8.3,0.0006508745630435837,0.00028257927928124427
8.4,0.000650321103830955,0.00028233907127802433
8.5,0.000649179767055338,0.0002818437168711581
8.6,0.0006487249901517827,0.0002816463378609661
8.700000000000001,0.0006478568877019401,0.0002812695700125158
8.8,0.0006467630702724443,0.0002807948384371515
8.9,0.000645784380882374,0.00028037007354997443
9.0,0.0006451694857826288,0.0002801032002616692
9.1,0.0006442549653754077,0.00027970628499137014
9.200000000000001,0.0006435421941830338,0.00027939693158791586
9.3,0.0006425976501595291,0.00027898698495497045
9.4,0.0006415467955963425,0.0002785308974579303
9.5,0.0006406940943809801,0.00027816081129526524
9.600000000000001,0.0006395684986941764,0.00027767228402119666
9.700000000000001,0.0006391120736243746,0.0002774741877829123
9.8,0.0006377844396572717,0.0002768979715612089
9.9,0.0006371363647870501,0.0002766166955235513
10.0,0.0006358056026803816,0.0002760391204936187
10.100000000000001,0.0006350727554526881,0.00027572105110036145
10.200000000000001,0.0006341526308803555,0.00027532169950953117
10.3,0.0006328459939194825,0.0002747545935488186
10.4,0.0006320830908937414,0.0002744234783930541
10.5,0.0006314509680891054,0.0002741491242750413
10.600000000000001,0.000630827607792189,0.00027387857309332445
10.700000000000001,0.0006290693322445681,0.0002731154444570516
10.8,0.0006274181150436719,0.0002723987801780813
10.9,0.0006259071450514072,0.0002717429852103312
11.0,0.0006254830886210863,0.0002715589350019031
11.100000000000001,0.0006244839861316104,0.00027112530131781146
11.200000000000001,0.0006232182112782689,0.00027057592501266976
11.3,0.0006222641809392802,0.00027016185276074444
11.4,0.0006213191746292818,0.00026975169676658723
11.5,0.0006198142294813387,0.0002690985127374779
11.600000000000001,0.0006179686578899055,0.0002682974869274256
11.700000000000001,0.0006183276240515046,0.0002684532876426162
11.8,0.0006171473725743961,0.0002679410273812712
11.9,0.000615341859436095,0.0002671573859031318
12.0,0.0006150778699993062,0.00026704280723739373
12.100000000000001,0.0006116134826808654,0.0002655391651941057
12.200000000000001,0.0006107420294802451,0.0002651609290474151
12.3,0.000608918456461523,0.0002643694440195045
12.4,0.0006079850424538342,0.0002639643139687424
12.5,0.0006066673900895298,0.00026339241214881544
12.600000000000001,0.0006053983971324183,0.00026284162930246895
12.700000000000001,0.0006052650413509601,0.0002627837486595067
12.8,0.0006027135433551138,0.0002616763160367044
12.9,0.0006028167315176165,0.0002617211030901837
13.0,0.0006006066264030542,0.0002607618438320394
13.100000000000001,0.0006000883676994458,0.00026053690198018527
13.200000000000001,0.0005991127035375598,0.00026011343033230546
13.3,0.0005961323108845799,0.00025881983533063857
13.4,0.0005949145421000581,0.0002582912798344857
13.5,0.0005940198657889882,0.00025790295769429
13.600000000000001,0.0005915072122408344,0.00025681237258249907
13.700000000000001,0.0005876777898221859,0.0002551502555289202
13.8,0.0005901487014647464,0.00025622272722779503
13.9,0.0005901341022068497,0.00025621639059010727
14.0,0.0005856235758376605,0.00025425864479486186
14.100000000000001,0.0005855375242851895,0.0002542212949517717
14.200000000000001,0.0005796452198383299,0.0002516637896253586
14.3,0.0005787583078953171,0.0002512788316309295
14.4,0.0005784730758975686,0.0002511550285826098
14.5,0.0005769580224577895,0.0002504974291393327
14.600000000000001,0.0005719596379062964,0.0002483279046127597
14.700000000000001,0.0005799659669640465,0.00025180300761278956
14.8,0.0005787273029800779,0.00025126537415571897
14.9,0.0005651650456021284,0.0002453787274593524
15.0,0.0005747016395142927,0.0002495180584288335
15.100000000000001,0.0005662405662668925,0.0002458455560629756
15.200000000000001,0.0005636986735071821,0.0002447422493985365
15.3,0.000566363024268154,0.0002458987087966179
15.4,0.0005760401956555519,0.0002500990516880765
15.5,0.0005545040148125696,0.00024075129121452568
15.600000000000001,0.0005642416489224785,0.0002449779277096737
15.700000000000001,0.0005517357882441127,0.00023954973029845897
15.8,0.0005484797472409653,0.00023813642712703894
15.9,0.0005465988357288366,0.00023732000465976564
16.0,0.0005544629994810258,0.00024073348835374167
16.1,0.0005668294374867198,0.00024610115477866166
16.2,0.0005566771822862302,0.00024169456178436735
16.3,0.0005476503394749844,0.00023777641721985275
16.400000000000002,0.000569655296555939,0.00024732771279681586
16.5,0.000534265981185326,0.0002319668070267839
16.6,0.0005446269393416492,0.00023646408793907503
16.7,0.0005451479468766632,0.00023669023541168728
16.8,0.0005215206691912246,0.00022643450882086564
16.900000000000002,0.0005623047006864456,0.0002441371953410258
17.0,0.0005855565423950652,0.0002542295495785182
17.1,0.00040480077935718916,0.00017576717180053554
17.2,0.0005032085423784703,0.00021848572586892622
17.3,0.0006268173521635301,0.00027213803569180867
17.400000000000002,0.0005490016540224547,0.00023836296405221514
17.5,0.0006217337220715022,0.0002699316206057759
17.6,0.0006052080613053234,0.00026275901750823704
17.7,0.0009173315508428434,0.0003982094134889193
17.8,0.00042016574383984694,0.00018243733975752306
17.900000000000002,0.0003827937746419261,0.0001662134133331813
18.0,0.0006702505913550283,0.00029098862655822593
18.1,0.0007708690866759915,0.00033465521949715705
18.2,0.00025050341363733755,0.00010877862610079256
18.3,0.0004903117705256107,0.00021288750998946183
18.400000000000002,0.0004577862584613074,0.00019876855265540673
18.5,0.0004756947421955377,0.00020654247991392247
18.6,0.00039160027772674094,0.00017003654872113196
18.7,0.0004905547471969929,0.00021299298169017727
18.8,0.0003738445356596964,0.00016232827804709833
18.900000000000002,0.0003709301891204697,0.00016106306457617698
19.0,0.0004338453139181052,0.0001883757658166488
19.1,0.0003314644384533026,0.00014392932415869646
19.200000000000003,0.0006694585372221474,0.0002906448720845177
19.3,0.0005695983958013674,0.00024730301518152226
19.400000000000002,0.0003757377534174517,0.0001631501840292147
19.5,0.0005318189854998991,0.0002309046564747357
19.6,0.0006337064036190414,0.00027512802824617664
19.700000000000003,0.000513246872036686,0.0002228431025074975
19.8,0.0007429496871508137,0.00032253914911194056
19.900000000000002,0.0002703912333748915,0.00011741354752798393
20.0,0.0005654150775042109,0.000245487253585981
20.1,0.000334840006392047,0.000145394826452429
20.200000000000003,0.0005605705944269353,0.00024338450515011114
20.3,0.0006418742403422231,0.00027867301370674793
20.400000000000002,0.0005251128668224439,0.00022799376444535927
20.5,0.0005750477376734912,0.00024966828059067107
20.6,0.0005986593105654843,0.00025991664212011485
20.700000000000003,0.0010721968422927745,0.0004653997166302401
20.8,0.00017481857591291594,7.59161072736233e-05
20.900000000000002,0.0005994944543918419,0.0002602791233213717
21.0,0.000244151627978198,0.00010602076273435746
21.1,0.0004916290363639781,0.00021345931053704
21.200000000000003,0.0005241201139261101,0.0002275628434088698
21.3,0.000208796201142124,9.066957259658997e-05
21.400000000000002,0.00031393161870418726,0.00013631737365066643
21.5,0.0006453808769877088,0.00028019494709365984
21.6,0.00023571998966323766,0.00010235982713022972
21.700000000000003,0.0002877900481149041,0.00012496764848256162
21.8,0.00036282725094637997,0.0001575452938352163
21.900000000000002,0.00025854754594395023,0.00011227125940914493
22.0,0.0002878009424854939,0.00012497237848638353
22.1,0.00031653985949833965,0.0001374497612660305
22.200000000000003,0.0001693845272502563,7.35565360109318e-05
22.3,0.00034879630573600646,0.00015145389914435092
22.400000000000002,0.0004543491282555941,0.000197276506447522
22.5,0.0002630827479942903,0.00011424035906291543
22.6,0.0004357651036677038,0.00018920915754825582
22.700000000000003,0.0004542027750847552,0.00019721297493382315
22.8,0.0004611630222724877,0.0002002343890305807
22.900000000000002,0.0005978629513325081,0.0002595709944871532
23.0,0.000799179537702335,0.0003469406477990142
23.1,0.0005827754419665568,0.00025302243816218843
23.200000000000003,0.000579973886584622,0.0002518064450666581
23.3,0.0004982185072123882,0.00021631966570745886
23.400000000000002,0.000371853230291114,0.00016146378743808943
23.5,0.0002860490167675497,0.00012421174505905958
23.6,0.0003162674660674194,0.00013733149972046044
23.700000000000003,0.0003299640316888074,0.0001432779212084445
23.8,0.00020893807469560903,9.073117463139354e-05
23.900000000000002,0.0005702583535475689,0.00024758946793144895
24.0,0.0007194222260134563,0.0003123287682534345
24.1,0.0007987040920651858,0.0003467343292189251
24.200000000000003,0.00033558746559793573,0.00014571933508123334
24.3,0.00078254689453652,0.0003397228909109667
24.400000000000002,0.00011974002769912486,5.199932015476925e-05
24.5,0.0007019325592244092,0.0003047384967108193
24.6,8.370750076575043e-05,3.63521842224831e-05
24.700000000000003,0.00014366899302540353,6.239016923245229e-05
24.8,0.0017475698967024667,0.000758297566696277
24.900000000000002,0.0008808798585431263,0.00038239286541397275
25.0,0.0005614071044438184,0.00024374759314615166
25.1,0.0002863203957839285,0.0001243295697487492
25.200000000000003,0.0006685442254839903,0.00029024805701165766
25.3,0.0005171424107586412,0.00022453404231539538
25.400000000000002,0.0007711053169485506,0.0003347577339636973
25.5,4.75453249769579e-05,2.064818141938928e-05
25.6,0.0005077590414485118,0.00022046098404404039
25.700000000000003,0.00042603070745632067,0.00018498338386601314
25.8,0.0008823306268117693,0.0003830223710920528
25.900000000000002,0.0009739223955396193,0.0004227632862691241
26.0,0.002680629213257238,0.001162624887492561
26.1,0.0003973426566735973,0.00017252944883286046
26.200000000000003,0.0005264981941972665,0.0002285950883004621
26.3,0.0003586069775650551,0.0001557131132924145
26.400000000000002,0.00015591320723033742,6.77069674879238e-05
26.5,0.0006850837311796998,0.00029742621479134264
26.6,0.00013634797791618218,5.9211137859927446e-05
26.700000000000003,0.00047711433506611504,0.00020715870769045876
26.8,0.00027269878143074735,0.0001184154308590016
26.900000000000002,0.00017257145546687415,7.494036474529575e-05
27.0,0.0002931893520071688,0.00012731185540110657
27.1,0.0005171706945092501,0.00022454631944304399
27.200000000000003,0.0003462825586552354,0.00015036257193753433
27.3,0.0005811294449013742,0.0002523080064848503
27.400000000000002,0.00011195688661374912,4.861953647221165e-05
27.5,0.00023540092845846005,0.00010222129324270622
27.6,0.0006636469884468191,0.0002881226297276868
27.700000000000003,0.0005345170999797697,0.0002320758082841552
27.8,0.0007865208470375826,0.0003414474036149018
27.900000000000002,0.0008248749361125602,0.0003580909631797596
28.0,0.0005314516603287969,0.0002307452139451136
28.1,0.0014530371680670402,0.0006305880010572537
28.200000000000003,0.0004337613318884407,0.00018833930869985337
28.3,0.0009347971282879555,0.00040578759950898294
28.400000000000002,0.000589497786262944,0.0002559402049856783
28.5,0.0008484108144739388,0.0003683039206811806
28.6,0.0005817234463676705,0.0002525658281395509
28.700000000000003,0.0007330873564677412,0.00031825915203468664
28.8,0.0006157192139625434,0.000267321168078788
28.900000000000002,0.001703257024590725,0.0007390858789623578
29.0,0.001659867668036485,0.0007202737545945171
29.1,0.0011379262017767221,0.0004939141046104071
29.200000000000003,0.0009911285398242955,0.00043022848503906615
29.3,0.001277489897620611,0.000554452734696706
29.400000000000002,0.0011026086633840364,0.0004785930562419813
29.5,0.000772029415137884,0.00033515875529307765
29.6,0.0007176553643688619,0.00031156198095734066
29.700000000000003,0.0004595317433920718,0.00019952625959989865
29.8,0.0006670003232670671,0.00028957799624633105
29.900000000000002,0.0007059751809436876,0.00030649294996181484
30.0,0.0008826741813754915,0.0003831714433866362
30.1,0.0004772530303247042,0.00020721891354668763
30.200000000000003,0.0014049317686219477,0.0006097259031384252
30.3,0.0013697976127633744,0.0005944884729936785
30.400000000000002,0.0008577419231306471,0.00037235291557896394
30.5,0.001068249073801385,0.00046368705548784734
30.6,0.0008134963904083371,0.0003531533683751106
30.700000000000003,0.0004799958009200771,0.0002084095138309926
30.8,0.0004955084724047069,0.00021514329703936147
30.900000000000002,0.0008090187929575085,0.00035121034879941645
31.0,0.001113104302038311,0.00048314620995273055
31.1,0.0013853213878368602,0.0006012210882683699
31.200000000000003,0.0014224017377912847,0.0006173023038420776
31.3,0.0006911825802782728,0.00030007308989832835
31.400000000000002,0.0009791297496232444,0.00042502260512922933
31.5,0.0010669912426835007,0.0004631413689601016
31.6,0.0016220501865552605,0.000703876737896813
31.700000000000003,0.002289141754968404,0.0009930254775744603
31.8,0.00032351475204474983,0.0001404779495078961
31.900000000000002,0.001136470120843808,0.0004932824550067954
32.0,0.0004394505375579498,0.00019080902103745418
32.1,0.0009303295928082994,0.0004038491812002965
32.2,0.0017169384911180274,0.0007450175206923555
32.300000000000004,0.002253973948508919,0.0009777869085779867
32.4,0.0010180886356273104,0.0004419253551024592
32.5,0.0013034432761705045,0.0005657096171575841
32.6,0.0019078826112952057,0.0008277934746758786
32.7,0.001801695757188679,0.0007817624876204869
32.800000000000004,0.0004937763466668153,0.00021439141630150594
32.9,0.003708207787897634,0.0016074755918799371
33.0,0.0007444278611200462,0.0003231806348443311
33.1,0.0015503961704403722,0.0006728070774940793
33.2,0.0034454344992473785,0.0014937613375248869
33.300000000000004,0.0013179473543612592,0.0005720004129644164
33.4,0.0018383096152249302,0.0007976347964838553
33.5,0.0023062372020337587,0.0010004329159076467
33.6,0.0008604986028609812,0.00037354909870912425
33.7,0.00016158967770024424,7.017183598826279e-05
33.800000000000004,0.0021873230899849016,0.0009489049451854339
33.9,0.0013177010862838456,0.0005718936008569738
34.0,0.0003158510118334999,0.00013715069309028064
34.1,0.003113224523758888,0.0013499559622298636
34.2,0.002593477605242598,0.0011248749735581652
34.300000000000004,0.0013112732093844086,0.0005691056740831072
34.4,0.0008540100491723536,0.00037073356927133124
34.5,0.0027300654677983598,0.0011840368532454796
34.6,0.006237459431718891,0.0027004808705411642
34.7,0.003953185043456508,0.001713461861465957
34.800000000000004,0.002458229072990669,0.0010662852712218552
34.9,0.0007314768643597991,0.0003175602360027857
35.0,0.0015140753210466486,0.0006570572654476576
35.1,0.0018780342003779195,0.0008148549665775955
35.2,0.003582106681015714,0.0015529094789883864
35.300000000000004,0.002430491677408417,0.0010542684468267782
35.4,0.0015490935886363893,0.0006722422487448474
35.5,0.004809747275938821,0.0020838393386040373
35.6,0.0022915415489820137,0.0009940653132931739
35.7,0.003276901886867289,0.0014208137429101452
35.800000000000004,0.0015185287193861593,0.0006589884235532565
35.9,0.0014888192328197359,0.000646105129749944
36.0,0.002314373963135739,0.0010039585211294069
36.1,0.007967538965615662,0.0034465461222932168
36.2,0.005739091324958248,0.0024853307257067863
36.300000000000004,0.002290490498831482,0.0009936098913914959
36.4,0.006937514510458255,0.0030025212534334606
36.5,0.004600329579965981,0.0019933163028626444
36.6,0.00471750929934618,0.0020439708131554163
36.7,0.005054525347492713,0.002189623363665239
36.800000000000004,0.027467750813986405,0.01176819953756939
36.9,0.005890291969156927,0.002550616713379024
