Frequency (Hz),Power,Log Power
0.0,0.6146886107599228,0.20808878198123582
0.1,0.6146894318320965,0.20808900282073473
0.2,0.6146918721199053,0.2080896591715523
0.30000000000000004,0.6146959269761858,0.20809074978179617
0.4,0.614701620449623,0.2080922811163936
0.5,0.6147089343303855,0.20809424827293974
0.6000000000000001,0.6147178343078595,0.20809664201733025
0.7000000000000001,0.6147283550744411,0.208099471673317
0.8,0.6147404709649912,0.20810273032958077
0.9,0.6147541741710398,0.20810641587634596
1.0,0.6147694367914311,0.20811052079868983
1.1,0.6147862617799433,0.20811504587913496
1.2000000000000002,0.6148046503210739,0.2081199914231129
1.3,0.614824564652474,0.20812534726037
1.4000000000000001,0.6148459984730376,0.20813111168111503
1.5,0.6148689296888149,0.2081372787272458
1.6,0.6148933413963442,0.2081438438357487
1.7000000000000002,0.6149191967401538,0.2081507970771594
1.8,0.6149464916845134,0.20815813734753777
1.9000000000000001,0.614975211991941,0.20816586079855554
2.0,0.6150053126862983,0.2081739553151393
2.1,0.615036780827136,0.20818241739676321
2.2,0.6150695921820685,0.20819124050581653
2.3000000000000003,0.6151037115191247,0.20820041514656618
2.4000000000000004,0.615139102818951,0.2082099316114922
2.5,0.6151757508989878,0.20821978579577682
2.6,0.615213614222709,0.20822996650819306
2.7,0.6152526622100559,0.2082404655036841
2.8000000000000003,0.6152928524586441,0.20825127135867655
2.9000000000000004,0.6153341659207954,0.20826237892915098
3.0,0.6153765626428559,0.20827377745039888
3.1,0.6154199953290335,0.2082854541843584
3.2,0.615464418523475,0.208297396888426
3.3000000000000003,0.6155098240700624,0.2083096033480579
3.4000000000000004,0.6155561402161499,0.2083220542524298
3.5,0.6156033256515292,0.20833473847580491
3.6,0.6156513479926012,0.20834764729287047
3.7,0.6157001562177237,0.20836076696915215
3.8000000000000003,0.6157497012450142,0.20837408429289772
3.9000000000000004,0.6157999509783386,0.2083875906191191
4.0,0.6158508417276898,0.20840126881211865
4.1000000000000005,0.6159023324247832,0.20841510781801662
4.2,0.6159543527230726,0.20842908871549876
4.3,0.6160068897102027,0.20844320802071123
4.4,0.6160598451913025,0.20845743933158237
4.5,0.6161131945565766,0.20847177602375117
4.6000000000000005,0.6161668607335224,0.2084861973759335
4.7,0.6162208299832937,0.20850069968791646
4.800000000000001,0.616275011065202,0.20851525843512328
4.9,0.6163293420024556,0.2085298569592054
5.0,0.6163837672473986,0.20854448033143697
5.1000000000000005,0.6164382407450073,0.20855911617551695
5.2,0.6164926903280802,0.2085737451013906
5.300000000000001,0.6165470540434768,0.20858835046568028
5.4,0.6166012826616152,0.20860291904538544
5.5,0.6166552836935619,0.20861742599818206
5.6000000000000005,0.6167090011061951,0.2086318562781233
5.7,0.6167623911137705,0.20864619813111554
5.800000000000001,0.6168153632579183,0.20866042726778555
5.9,0.6168678837614887,0.2086745346265755
6.0,0.6169198167193161,0.208688483716067
6.1000000000000005,0.6169711379641427,0.2087022680605281
6.2,0.6170217952225233,0.2087158736361984
6.300000000000001,0.6170716869410608,0.20872927318582477
6.4,0.6171207139432614,0.20874244009359172
6.5,0.6171688434694489,0.20875536558295835
6.6000000000000005,0.617216012052049,0.2087680326315991
6.7,0.6172621152991754,0.20878041322904806
6.800000000000001,0.6173071097536994,0.2087924957302763
6.9,0.6173508757763957,0.2088042480343765
7.0,0.6173933367038037,0.2088156495828512
7.1000000000000005,0.617434441263088,0.2088266866361378
7.2,0.6174741242689009,0.20883734171964424
7.300000000000001,0.6175122300660627,0.2088475730687901
7.4,0.617548813791842,0.208857395517281
7.5,0.6175835685718551,0.20886672670215758
7.6000000000000005,0.6176167112309484,0.20887562486778283
7.7,0.6176479758446617,0.2088840186472898
7.800000000000001,0.6176772825373722,0.2088918866258767
7.9,0.617704584047256,0.20889921614404763
8.0,0.617729728835417,0.20890596654704835
8.1,0.6177526955833512,0.20891213213881293
8.200000000000001,0.6177735147084219,0.20891772110984805
8.3,0.6177918914906674,0.20892265436516672
8.4,0.6178077255555345,0.20892690498193753
8.5,0.6178210143058114,0.20893047228299746
8.6,0.6178318702167949,0.20893338647831103
8.700000000000001,0.6178400779912134,0.2089355897864311
8.8,0.6178455375478581,0.20893705535237675
8.9,0.6178478131341054,0.20893766621035564
9.0,0.6178471502054612,0.20893748825399366
9.1,0.6178432278044426,0.2089364353243748
9.200000000000001,0.6178360074226331,0.20893449707787443
9.3,0.6178260214576343,0.20893181642120706
9.4,0.617813685254884,0.20892850483817074
9.5,0.6177959850163822,0.20892375326632306
9.600000000000001,0.61777530917343,0.20891820283724172
9.700000000000001,0.6177520037252578,0.20891194640571706
9.8,0.6177240366205706,0.20890443841672915
9.9,0.6176921074972366,0.20889586663402257
10.0,0.6176568181721714,0.20888639256522903
10.100000000000001,0.6176170220697303,0.20887570832114596
10.200000000000001,0.617573698350356,0.20886407670255716
10.3,0.6175260193243747,0.2088512754044862
10.4,0.6174736611752327,0.20883721737820934
10.5,0.6174178497133955,0.20882223164541203
10.600000000000001,0.6173557149870912,0.2088055474675355
10.700000000000001,0.6172905196462997,0.2087880407761068
10.8,0.6172213707627245,0.20876947168154877
10.9,0.6171446439740854,0.20874886670315448
11.0,0.6170642928324241,0.20872728735678134
11.100000000000001,0.6169815965498122,0.20870507707254385
11.200000000000001,0.6168899184873888,0.2086804531649782
11.3,0.616794855504189,0.20865491862346636
11.4,0.6166950727766615,0.20862811471256557
11.5,0.6165890577050679,0.20859963483962513
11.600000000000001,0.6164779306775012,0.2085697796865739
11.700000000000001,0.6163614230386012,0.2085384767858358
11.8,0.6162374763127384,0.20850517269782828
11.9,0.6161111376230181,0.20847122326824763
12.0,0.6159775205854228,0.20843531513064037
12.100000000000001,0.6158353279610789,0.2083970991354366
12.200000000000001,0.6156906100792494,0.20835820099334626
12.3,0.6155358314544338,0.2083165948082387
12.4,0.6153788005962472,0.20827437912443444
12.5,0.6152169287192077,0.20823085770057168
12.600000000000001,0.615041795675884,0.20818376592193824
12.700000000000001,0.6148634748124376,0.20813581171858167
12.8,0.6146825816917774,0.20808716037079186
12.9,0.6144913266100044,0.208035716237335
13.0,0.6142906526850528,0.20798173205448245
13.100000000000001,0.614087224355181,0.20792700004688738
13.200000000000001,0.6138757259719736,0.20787008949227237
13.3,0.6136556970395793,0.20781087559854258
13.4,0.6134270873083353,0.20774934389849675
13.5,0.6131929795224518,0.20768632332734033
13.600000000000001,0.6129542152023916,0.20762203982097313
13.700000000000001,0.6127045459845614,0.2075548101653592
13.8,0.6124469116266809,0.20748542478505394
13.9,0.6121858182706992,0.2074150965253666
14.0,0.6119121402661972,0.20734136622995528
14.100000000000001,0.6116317086540897,0.2072658034904954
14.200000000000001,0.6113484470217616,0.20718946484847484
14.3,0.6110558554243257,0.20711059770168608
14.4,0.6107386487438518,0.20702507945325677
14.5,0.6104414356870307,0.20694493615948864
14.600000000000001,0.6101103844541066,0.20685565101071787
14.700000000000001,0.6097877394026896,0.20676861535895327
14.8,0.6094447812454122,0.20667608098323645
14.9,0.6091008389370015,0.20658326126599036
15.0,0.608753230619711,0.20648943204229847
15.100000000000001,0.6083869300823851,0.20639053532358573
15.200000000000001,0.6080062044461368,0.20628772012855318
15.3,0.6076314762227657,0.20618650076460643
15.4,0.6072323009862342,0.2060786519626398
15.5,0.6068222733842571,0.20596784318711206
15.600000000000001,0.6064323280011912,0.20586243533747103
15.700000000000001,0.6060164809391876,0.20574999769497848
15.8,0.6055746875280292,0.2056305127221081
15.9,0.6051246287952411,0.2055087585457088
16.0,0.6047007901183137,0.20539406645149583
16.1,0.6042382418138803,0.2052688648346241
16.2,0.6037704796699331,0.20514221522919204
16.3,0.6032789142370631,0.2050090809175926
16.400000000000002,0.6028032348627829,0.2048802102777813
16.5,0.6022996172431775,0.2047437289446845
16.6,0.6017688710388029,0.20459984927993818
16.7,0.6012663148388658,0.20446356767601936
16.8,0.6007306855176431,0.2043182703127198
16.900000000000002,0.6001854130158446,0.2041703071461352
17.0,0.5996225603087061,0.20401752058557066
17.1,0.5990959933681608,0.20387453512757567
17.2,0.5985323300061319,0.20372142421813924
17.3,0.5979280630356032,0.20355722395800502
17.400000000000002,0.5974106305356821,0.2034165702727544
17.5,0.5967380231696278,0.2032336672813463
17.6,0.5961233634325511,0.20306645467607734
17.7,0.5952690181724757,0.2028339308140207
17.8,0.5948255387384416,0.20271318162063895
17.900000000000002,0.5940312189789153,0.20249682276743622
18.0,0.5935971843296707,0.20237855374078867
18.1,0.592621078378593,0.2021124593262727
18.2,0.5918596985051618,0.20190478774202927
18.3,0.5914618609757613,0.20179623531250943
18.400000000000002,0.5908408907342236,0.20162674549724668
18.5,0.5904810211011423,0.20152849112321616
18.6,0.5893770473298443,0.2012269369494224
18.7,0.5883146478129343,0.20093654108397893
18.8,0.5880061926700536,0.20085219169132218
18.900000000000002,0.587253799984646,0.20064637547572511
19.0,0.5862301884543475,0.20036621092707285
19.1,0.5855778136304312,0.20018756027106316
19.200000000000003,0.5847937235776451,0.19997274255258024
19.3,0.5838523679646432,0.19971469823431182
19.400000000000002,0.5830468218810415,0.19949376020907003
19.5,0.5822058177689508,0.19926297708031848
19.6,0.5815357563765557,0.19907901517143003
19.700000000000003,0.5805562518856592,0.19880995696066928
19.8,0.5798176543084208,0.19860696271536624
19.900000000000002,0.5787067887858942,0.19830147653335067
20.0,0.5772829615169901,0.19790961190960643
20.1,0.5771493574160433,0.1978728233416684
20.200000000000003,0.5761790046319665,0.1976055382228727
20.3,0.5757236783798786,0.1974800612015237
20.400000000000002,0.5738815248143041,0.19697203739030822
20.5,0.5733823009932254,0.19683426047388347
20.6,0.5717808614672606,0.19639199635376772
20.700000000000003,0.5718839399431145,0.1964204767523537
20.8,0.5700243417201166,0.19590638578042865
20.900000000000002,0.568642243567246,0.1955239063907093
21.0,0.5688036998526002,0.1955686048971533
21.1,0.5656925562839377,0.19470648682932518
21.200000000000003,0.5673596229204276,0.19516865462488522
21.3,0.5655048741427938,0.19465442411519793
21.400000000000002,0.5642419691941154,0.19430393399085094
21.5,0.5623697552458781,0.19378382317729068
21.6,0.5614215168455488,0.19352015977498851
21.700000000000003,0.560455917622135,0.19325150449518697
21.8,0.5593466952266501,0.19294268419746874
21.900000000000002,0.5579822340762927,0.1925625010344768
22.0,0.5575457416846673,0.192440809789981
22.1,0.5556667102917935,0.19191655834429242
22.200000000000003,0.555374299908111,0.19183491865131372
22.3,0.5543800304094639,0.1915572081149597
22.400000000000002,0.5525169959747479,0.19103636325611842
22.5,0.5519217778764852,0.19086982755829804
22.6,0.5503232320230141,0.19042225510514793
22.700000000000003,0.5486273337066085,0.18994692041452482
22.8,0.5474401014678894,0.18961384728476796
22.900000000000002,0.5459979676588785,0.18920891866696685
23.0,0.5450927843339183,0.1889545643526364
23.1,0.5438350508368562,0.18860089681696524
23.200000000000003,0.5415706944313284,0.18796344570049978
23.3,0.5416751152610776,0.18799286235617518
23.400000000000002,0.5400343325406143,0.18753040282784972
23.5,0.5383959436600761,0.1870681261131795
23.6,0.5375911958178617,0.18684088357975945
23.700000000000003,0.5367203268738104,0.18659483591400589
23.8,0.5348356811362327,0.18606188691698064
23.900000000000002,0.5338011174238116,0.1857690498313301
24.0,0.5331151892594249,0.18557478641364702
24.1,0.5297828103087628,0.1846297765823562
24.200000000000003,0.5292026245894826,0.18446503473265055
24.3,0.5276963811480545,0.18403704985861474
24.400000000000002,0.5269789617222668,0.1838330535129568
24.5,0.5247523266039096,0.18319930471573215
24.6,0.5236418731353035,0.18288289955054804
24.700000000000003,0.5231864881874572,0.18275307853799952
24.8,0.5233508457580657,0.18279993802351982
24.900000000000002,0.5172786959879573,0.1810653599646938
25.0,0.5169425538421701,0.18096913449685367
25.1,0.5164057566620786,0.18081542444987933
25.200000000000003,0.5141246237113525,0.1801616222992686
25.3,0.5127348151965655,0.1797628021865584
25.400000000000002,0.5118186534961875,0.1794996995584893
25.5,0.5096432280576316,0.1788743231916532
25.6,0.5083066349745963,0.17848964149393853
25.700000000000003,0.5071104322135848,0.17814507603316126
25.8,0.5051664087110401,0.1775845174645804
25.900000000000002,0.5032051802135623,0.17701826372251755
26.0,0.49889143965466143,0.17577017930174274
26.1,0.5007846820894795,0.17631838838709288
26.200000000000003,0.499455162368318,0.1759334837486563
26.3,0.49755263794578847,0.17538209648213482
26.400000000000002,0.4959172179996626,0.17490756093439866
26.5,0.4950712022183492,0.17466187626859211
26.6,0.49202885806818436,0.1737772231222851
26.700000000000003,0.4907671472518127,0.1734098134321745
26.8,0.49040629226204546,0.17330467541537117
26.900000000000002,0.48712202139856225,0.17234660473305663
27.0,0.48665493984181807,0.1722101782646262
27.1,0.485221233867337,0.17179114960710604
27.200000000000003,0.48392787896150957,0.17141279411674493
27.3,0.48091444682183804,0.1705299698335624
27.400000000000002,0.4808517030171988,0.17051156913157992
27.5,0.4791566612239852,0.17001417366016955
27.6,0.47651022855507535,0.16923645989550312
27.700000000000003,0.4753417253048493,0.16889262521266765
27.8,0.4738179400728854,0.1684438386756035
27.900000000000002,0.47347669738819276,0.1683432719974503
28.0,0.47055552106247195,0.16748142601130964
28.1,0.4691397021136563,0.16706309529488741
28.200000000000003,0.4701129518012635,0.16735070376823624
28.3,0.4666672880822953,0.16633160577378953
28.400000000000002,0.4639708242857675,0.16553242168278584
28.5,0.4659715398457784,0.16612553905823996
28.6,0.46308599018603624,0.16526985173421596
28.700000000000003,0.4603597989521268,0.16445986910543264
28.8,0.460205218387947,0.16441389616136404
28.900000000000002,0.45734409455575287,0.1635621054579984
29.0,0.4600786957462078,0.16437626414557843
29.1,0.45746215473925206,0.16359728644902763
29.200000000000003,0.4558396475373993,0.16311354254242924
29.3,0.45557856878958647,0.16303565262665873
29.400000000000002,0.44744119509325203,0.16060092876197518
29.5,0.45057383141032226,0.16153983845275927
29.6,0.44981091802104406,0.16131136594900608
29.700000000000003,0.44922093369660904,0.1611345987017631
29.8,0.4452602715435328,0.15994606461267802
29.900000000000002,0.44747580273104787,0.160611312414521
30.0,0.44732029182037386,0.16056465107587017
30.1,0.44126315659228676,0.15874328478452568
30.200000000000003,0.44341611334201086,0.15939154916492768
30.3,0.4418235350336098,0.1589121102788236
30.400000000000002,0.4394035889702657,0.1581825812110261
30.5,0.441217709814611,0.15872959013350713
30.6,0.4384322246640316,0.1578894038364607
30.700000000000003,0.43618449720962627,0.15721023445586935
30.8,0.4345292962535214,0.15670942192417545
30.900000000000002,0.4370720258166538,0.15747853544865126
31.0,0.4335107533975725,0.15640095512952873
31.1,0.4327070010950503,0.156157383127084
31.200000000000003,0.4309052367021765,0.1556108730748879
31.3,0.43398608422277096,0.15654493684462237
31.400000000000002,0.4341321779242989,0.15658918027022067
31.5,0.4271735546040141,0.1544767896694101
31.6,0.43409179334988757,0.15657695054339485
31.700000000000003,0.43002407618969885,0.1553433494009429
31.8,0.4271976407251723,0.15448411910822088
31.900000000000002,0.4322347232826549,0.15601419860925506
32.0,0.43333398563530584,0.1563473985048655
32.1,0.4251948031001736,0.15387423004928907
32.2,0.4284679825671322,0.15487051062688217
32.300000000000004,0.43440664029647086,0.15667228703756228
32.4,0.4286399215946968,0.1549227817860333
32.5,0.43075314688073796,0.15556470979373208
32.6,0.43264069314259773,0.15613728282447883
32.7,0.4362556908854852,0.15723176250766757
32.800000000000004,0.4357802851605875,0.15708798569804813
32.9,0.4309859835158456,0.15563537987330797
33.0,0.4384201331578938,0.15788575312815842
33.1,0.44446022241921973,0.15970558673286628
33.2,0.43416266883615307,0.15659841365484425
33.300000000000004,0.43918012132156714,0.15811515168548432
33.4,0.44638926971511816,0.16028519125573548
33.5,0.43717906053060773,0.15751088097746363
33.6,0.44051190140222174,0.15851685073997215
33.7,0.4475219030278827,0.16062514393120328
33.800000000000004,0.4448602990564277,0.15982585797013246
33.9,0.44258554615012663,0.1591415765032299
34.0,0.4551999387078835,0.16292266776321404
34.1,0.451760091362251,0.16189485355000338
34.2,0.44983116392318284,0.161317430617218
34.300000000000004,0.4505648284605774,0.16153714300669245
34.4,0.4617882836909945,0.16488447666907818
34.5,0.46219289599140895,0.16500466957026563
34.6,0.45383367510836,0.16251472418847596
34.7,0.4597708576140671,0.16428468928861392
34.800000000000004,0.4675217154001923,0.16658453636510326
34.9,0.46035088568000837,0.16445721839105887
35.0,0.4690727863922233,0.1670433137925695
35.1,0.4767537593068544,0.16930808509551626
35.2,0.46518387113183945,0.16589212926837724
35.300000000000004,0.47216094765526745,0.16795529292097414
35.4,0.4756065843132232,0.16897058442717036
35.5,0.4749791644429024,0.16878588551324214
35.6,0.4811698050390555,0.17060484998921713
35.7,0.48174145534353363,0.17077243150217922
35.800000000000004,0.4938131241677025,0.17429627069286366
35.9,0.4915329088601357,0.17363283998349363
36.0,0.4906523451372584,0.17337636766916553
36.1,0.4967530678350878,0.175150156974719
36.2,0.5117071255741701,0.17946766016827306
36.300000000000004,0.5040575982612768,0.17726446798970813
36.4,0.5063977292298016,0.17793965234602865
36.5,0.5314526863411545,0.18510358398401208
36.6,0.5189002359578233,0.18152924957320474
36.7,0.5237485238986788,0.18291329791243074
36.800000000000004,0.5365995969275886,0.18656071493033244
36.9,0.5423936517795175,0.18819522908287442
37.0,0.5394566569292325,0.1873674659436998
37.1,0.5541695921458981,0.19149840758874356
37.2,0.5636654049018693,0.19414382778342637
37.300000000000004,0.5560305273195645,0.19201811303694927
37.4,0.5655140144462125,0.1946569597647605
37.5,0.5765838816965992,0.19771708221290646
37.6,0.5961044792047689,0.20306131637372227
37.7,0.579965343496976,0.19864756081955096
37.800000000000004,0.5868541051680872,0.20053699970188169
37.9,0.6251061268108741,0.21088172764311425
38.0,0.6140635032342857,0.20792061747508142
38.1,0.6043144642369374,0.20528949904622656
38.2,0.6350578917791738,0.21353313414317962
38.300000000000004,0.6406185485096796,0.2150076172904516
38.400000000000006,0.6229945920069544,0.21031707271258376
38.5,0.6596748840757012,0.22002302184695854
38.6,0.6668944814987146,0.2219081087942509
38.7,0.6528167457952785,0.21822470432658758
38.800000000000004,0.6612320872078065,0.2204303110501129
38.900000000000006,0.6680987214642149,0.22222174949023205
39.0,0.6832970729011543,0.2261607682256017
39.1,0.6883229374237703,0.22745552080088682
39.2,0.6947574706103827,0.2291075569863863
39.300000000000004,0.6949657180745141,0.2291609187033302
39.400000000000006,0.7216998939306052,0.23595745271088264
39.5,0.698786156587183,0.2301387132661969
39.6,0.7333166958442398,0.23887792029722302
39.7,0.7532991074081469,0.24385601171039265
39.800000000000004,0.7067220819722378,0.23216280752806961
39.900000000000006,0.7605310776545,0.24564369582752255
40.0,0.7656665312704934,0.24690868491303936
40.1,0.7433071978382975,0.24137392329501622
40.2,0.7732079782098619,0.2487596766565793
40.300000000000004,0.78463019496582,0.25154823673699983
40.400000000000006,0.7390822949131537,0.24032013368818023
40.5,0.7889088126048475,0.2525882035121172
40.6,0.7788257752921952,0.25013341377558607
40.7,0.7980747992933354,0.25480775427410407
40.800000000000004,0.8401117596168548,0.2648442007872155
40.900000000000006,0.7570862157962585,0.24479307175479123
41.0,0.8944184389230848,0.2774759121773149
41.1,0.8569411348243,0.2687981367897633
41.2,0.8252732479097116,0.2613278886151432
