Frequency (Hz),Power,Log Power
0.0,0.0027860507429808834,0.0012082840740874003
0.1,0.0027860497065654126,0.0012082836252284557
0.2,0.002786053388925636,0.0012082852200140139
0.30000000000000004,0.002786056829183146,0.0012082867099477866
0.4,0.002786059662861511,0.0012082879371795414
0.5,0.002786064764535224,0.0012082901466525702
0.6000000000000001,0.002786078884779221,0.0012082962619589766
0.7000000000000001,0.0027860842166443807,0.0012082985711249776
0.8,0.002786095556178994,0.0012083034821397725
0.9,0.0027861034101823922,0.001208306883613287
1.0,0.0027861140260196588,0.00120831148120347
1.1,0.002786132006128789,0.0012083192681702232
1.2000000000000002,0.0027861513507537517,0.0012083276460919477
1.3,0.002786168680329528,0.0012083351513203129
1.4000000000000001,0.002786186777721461,0.0012083429890804155
1.5,0.002786210064174196,0.001208353074159324
1.6,0.002786231961071847,0.0012083625574386228
1.7000000000000002,0.0027862572010069735,0.0012083734885463904
1.8,0.0027862861814620834,0.001208386039627422
1.9000000000000001,0.002786319822713455,0.001208400609241883
2.0,0.0027863548984452422,0.0012084158001117963
2.1,0.002786386729340887,0.0012084295856824398
2.2,0.00278642799335442,0.001208447456620109
2.3000000000000003,0.0027864651262297572,0.0012084635384118606
2.4000000000000004,0.0027865035813894106,0.001208480192868147
2.5,0.002786553166229626,0.001208501667451112
2.6,0.0027866007742238285,0.001208522285885439
2.7,0.002786654202757955,0.0012085454251225154
2.8000000000000003,0.0027867107907158678,0.0012085699326656214
2.9000000000000004,0.002786765895999418,0.0012085937980795785
3.0,0.0027868267280505565,0.0012086201436838934
3.1,0.002786890886899343,0.001208647930081074
3.2,0.002786963551660436,0.0012086794002806915
3.3000000000000003,0.0027870393192875333,0.001208712214290339
3.4000000000000004,0.002787120020230375,0.001208747164854482
3.5,0.002787197148716776,0.0012087805682300557
3.6,0.00278728576406507,0.0012088189464175992
3.7,0.0027873831783047686,0.0012088611352898027
3.8000000000000003,0.002787478027571776,0.0012089022133010144
3.9000000000000004,0.0027875760908489347,0.0012089446832549706
4.0,0.0027876896488989076,0.0012089938637922114
4.1000000000000005,0.002787801391790984,0.0012090422582023209
4.2,0.0027879205336088595,0.0012090938569860963
4.3,0.0027880453734745736,0.0012091479235143662
4.4,0.0027881753941678155,0.00120920423378476
4.5,0.0027883144899038623,0.001209264474329983
4.6000000000000005,0.0027884641787509308,0.0012093293026038117
4.7,0.0027886138960957663,0.001209394143209918
4.800000000000001,0.0027887783290413883,0.0012094653569374352
4.9,0.0027889422984357154,0.001209536369895354
5.0,0.002789115865795261,0.0012096115395913965
5.1000000000000005,0.002789297673480835,0.001209690278048172
5.2,0.002789490987384697,0.0012097739996772185
5.300000000000001,0.002789690341813873,0.0012098603373589662
5.4,0.0027899004308161524,0.0012099513240191632
5.5,0.0027901224092204244,0.0012100474597953497
5.6000000000000005,0.0027903474030157274,0.0012101449014739693
5.7,0.0027905720327350485,0.001210242185454491
5.800000000000001,0.0027908279265689306,0.0012103530094579626
5.9,0.0027910992905029472,0.0012104705333122817
6.0,0.0027913638041860813,0.001210585090389945
6.1000000000000005,0.002791655630221571,0.0012107114760201492
6.2,0.0027919319856156977,0.0012108311615056642
6.300000000000001,0.002792248757128633,0.0012109683505813992
6.4,0.002792565575270973,0.0012111055598083762
6.5,0.0027928915497839363,0.001211246734478054
6.6000000000000005,0.0027932047060767917,0.0012113823577257743
6.7,0.002793576353601847,0.0012115433125853045
6.800000000000001,0.0027939418617423705,0.0012117016085131862
6.9,0.0027943292139841047,0.0012118693647206915
7.0,0.002794717453527226,0.0012120375051396276
7.1000000000000005,0.0027951263055497402,0.0012122145724276594
7.2,0.0027955700472390185,0.001212406749792108
7.300000000000001,0.0027959688564718893,0.0012125794675621577
7.4,0.0027963102853026415,0.0012127273347619922
7.5,0.002796823739542609,0.0012129497032367991
7.6000000000000005,0.0027974739550283997,0.0012132313005647313
7.7,0.002797594375126131,0.0012132834524519738
7.800000000000001,0.002798450347544498,0.0012136541593038327
7.9,0.002799197148216746,0.0012139775855019232
8.0,0.002799565459477465,0.0012141370945235486
8.1,0.002800260265606502,0.0012144380024753539
8.200000000000001,0.002800698048694909,0.0012146275982957938
8.3,0.002801393288448056,0.0012149286937021815
8.4,0.0028020075711027888,0.0012151947279212792
8.5,0.00280274140643673,0.0012155125379347145
8.6,0.002803328116959536,0.0012157666308459918
8.700000000000001,0.0028042761117044995,0.0012161771886098605
8.8,0.002805398275838155,0.0012166631751877467
8.9,0.0028051866135230057,0.0012165715085639024
9.0,0.0028063931843171,0.001217094049461861
9.1,0.002807127719744858,0.0012174121612811535
9.200000000000001,0.00280777422500168,0.0012176921488952408
9.3,0.002808355944323144,0.0012179440789505404
9.4,0.00280931529759444,0.001218359553782038
9.5,0.0028101577312437845,0.0012187243929653166
9.600000000000001,0.0028115364310401796,0.001219321476368921
9.700000000000001,0.0028126033998286675,0.0012197835556269202
9.8,0.002813014338942564,0.0012199615236265914
9.9,0.0028143803701604683,0.0012205531188766517
10.0,0.0028153538729152276,0.001220974719002772
10.100000000000001,0.0028160981878942726,0.001221297063257833
10.200000000000001,0.002817246247993072,0.0012217942589863215
10.3,0.0028181933453880503,0.0012222044224331112
10.4,0.00281960717116665,0.0012228167131805192
10.5,0.0028204561094858313,0.001223184365616521
10.600000000000001,0.002822365486492813,0.0012240112644930925
10.700000000000001,0.0028221979670925946,0.0012239387164928997
10.8,0.002823038322571498,0.0012243026509921376
10.9,0.002823895200400042,0.0012246737405456874
11.0,0.00282610943162606,0.0012256326599990894
11.100000000000001,0.002829104734791166,0.0012269298357321062
11.200000000000001,0.0028311623594785215,0.0012278209288670548
11.3,0.002827748159809078,0.0012263423443791613
11.4,0.0028357900880062294,0.0012298250472087217
11.5,0.0028332590718083413,0.0012287289477611655
11.600000000000001,0.002839063620541862,0.0012312427018339115
11.700000000000001,0.0028306418076207746,0.0012275954942509743
11.8,0.0028338138582937387,0.0012289692076851615
11.9,0.002839959050397076,0.0012316304809757632
12.0,0.0028407958696187482,0.0012319928776028844
12.100000000000001,0.0028451423535392887,0.001233875180256963
12.200000000000001,0.002845936708346652,0.0012342191852865213
12.3,0.0028483973026198527,0.0012352847738928642
12.4,0.002849643688711409,0.0012358245347050838
12.5,0.00285439061470919,0.0012378802355778023
12.600000000000001,0.0028538015802539608,0.0012376251492052731
12.700000000000001,0.002856780005157124,0.0012389149798638739
12.8,0.0028563763980113785,0.0012387401947948557
12.9,0.00285436552274601,0.0012378693692931403
13.0,0.00286415502447985,0.0012421087743144342
13.100000000000001,0.002865396617325747,0.001242646450913246
13.200000000000001,0.0028684890587139644,0.0012439856417601862
13.3,0.002869130392398871,0.001244263372683391
13.4,0.002873537554339166,0.0012461718987790936
13.5,0.0028741752307054713,0.0012464480445030972
13.600000000000001,0.002875055500269283,0.0012468292449126386
13.700000000000001,0.00287969515516118,0.001248838440221189
13.8,0.002885000539767284,0.0012511359173517278
13.9,0.002892315947978483,0.0012543038078178228
14.0,0.002887321285061127,0.0012521409036744496
14.100000000000001,0.0028819792817705676,0.0012498275742693476
14.200000000000001,0.0028940569504093345,0.0012550577343165119
14.3,0.002894478755508828,0.0012552403932797047
14.4,0.002901829705368242,0.001258423644686909
14.5,0.0029049042333946645,0.0012597550297438313
14.600000000000001,0.0029208771616026784,0.0012666718364227596
14.700000000000001,0.002913347300249648,0.001263411170914828
14.8,0.0029013393904907636,0.0012582113197201167
14.9,0.002907817493013724,0.001261016575812636
15.0,0.0029330419098133453,0.0012719395012027416
15.100000000000001,0.0029190393208347464,0.0012658759961389889
15.200000000000001,0.0028985923036673965,0.0012570217248558072
15.3,0.0029369246897067965,0.0012736208363942725
15.4,0.00293759445105189,0.0012739108581813507
15.5,0.0029375511406536845,0.0012738921038067629
15.600000000000001,0.0029785890622548343,0.001291662081868599
15.700000000000001,0.0029478368639543483,0.001278346030136357
15.8,0.002904719830837963,0.0012596751766891833
15.9,0.0029359863222415275,0.0012732145017656587
16.0,0.00294348907142358,0.0012764633535623925
16.1,0.002942242153660063,0.0012759234130307463
16.2,0.002938391949676284,0.0012742561928423984
16.3,0.002946337228662748,0.001277696660552981
16.400000000000002,0.002963120877842055,0.001284964233070276
16.5,0.0029703037278374245,0.0012880744779857993
16.6,0.0029876704370368603,0.0012955943423812034
16.7,0.002985081240813071,0.0012944732168508086
16.8,0.002984174319320108,0.0012940805179111334
16.900000000000002,0.002980505581249704,0.001292491942882359
17.0,0.002986994007513898,0.0012953014477455245
17.1,0.0029887333606290808,0.0012960545889224159
17.2,0.003001521960356151,0.0013015920218965174
17.3,0.002995817248599618,0.001299121904126873
17.400000000000002,0.003034853725469636,0.001316024264340072
17.5,0.0030068357157773773,0.0013038928444716572
17.6,0.003002302732666078,0.0013019300921450839
17.7,0.0030564841408606217,0.0013253897103381227
17.8,0.0030420459879396664,0.0013191383622129858
17.900000000000002,0.003054402952690437,0.001324488615045779
18.0,0.0030794680039310045,0.0013353409450926987
18.1,0.002998591452592773,0.0013003231253074438
18.2,0.002993668087327644,0.0012981913220994977
18.3,0.0030088180218273055,0.0013047511673639474
18.400000000000002,0.0029919154070335205,0.0012974324139731497
18.5,0.0030748574783591043,0.0013333447618587776
18.6,0.0030624110693166645,0.0013279558915642103
18.7,0.002999269997318928,0.0013006169324305417
18.8,0.0030282720148310104,0.0013131745029589736
18.900000000000002,0.003250360571328299,0.001409324492704238
19.0,0.002871876332448363,0.001245452505883705
19.1,0.003254477829075739,0.0014111067982198323
19.200000000000003,0.002951031710288375,0.0012797294539520778
19.3,0.0031882681187984027,0.0013824446179604279
19.400000000000002,0.002973926444001932,0.0012896431413773651
19.5,0.0030535498173256295,0.0013241192311542126
19.6,0.003484481944215525,0.0015106608712308256
19.700000000000003,0.003210507856291331,0.0013920724101901755
19.8,0.0032380901215682497,0.0014040127366166473
19.900000000000002,0.003144341476264085,0.0013634277327510796
20.0,0.0030073740575331065,0.0013041259423757503
20.1,0.003153082260950187,0.0013672118920803648
20.200000000000003,0.0030350038942266373,0.001316089284471116
20.3,0.003139123425750385,0.001361168659609992
20.400000000000002,0.002915013390405043,0.0012641326421782935
20.5,0.0028594441874592396,0.0012400687220120727
20.6,0.0029817165818670608,0.0012930163105697278
20.700000000000003,0.002647655283752377,0.0011483425420605188
20.8,0.0036702300134447362,0.0015910426786123707
20.900000000000002,0.002913764801433995,0.001263591962628562
21.0,0.0030139904087320294,0.00130699076212985
21.1,0.0024425841160660216,0.0010595073613946732
21.200000000000003,0.0032780099274791314,0.0014212933868218594
21.3,0.002466697293583012,0.0010699539387379648
21.400000000000002,0.00371885292318862,0.001612081610804893
21.5,0.002944922357375033,0.0012770839944476686
21.6,0.0031623118798881074,0.0013712076472706862
21.700000000000003,0.002629129987775874,0.0011403182793975593
21.8,0.0036240887286742834,0.0015710765927422537
21.900000000000002,0.0031962579647486027,0.001385903522235586
22.0,0.004280393803544328,0.0018549842039771798
22.1,0.004281925850468365,0.0018556467271347594
22.200000000000003,0.0032933681871202686,0.0014279415504373416
22.3,0.00522184745285854,0.002261918962630427
22.400000000000002,0.0025001539955642866,0.0010844480048569768
22.5,0.003844350708204475,0.0016663792742566362
22.6,0.0024522011533508648,0.0010636737907312578
22.700000000000003,0.0037913421393076996,0.0016434455029027714
22.8,0.0030815993246900773,0.001336263723288199
22.900000000000002,0.004029361060438077,0.0017464131676499161
23.0,0.004251592170870112,0.0018425289478713328
23.1,0.004410349876181929,0.0019111792210475132
23.200000000000003,0.0028733866921015427,0.0012461065678676796
23.3,0.0038598542890108598,0.001673086556711266
23.400000000000002,0.0033462296043877877,0.0014508230104219044
23.5,0.002203171273429179,0.0009557726474994537
23.6,0.0034218154436116916,0.0014835388123118842
23.700000000000003,0.004025643841178852,0.0017448052756266438
23.8,0.003284939663076983,0.00142429308930495
23.900000000000002,0.0033698918151041203,0.001461064984794401
24.0,0.002933250139107897,0.0012720296695594416
24.1,0.004301123442094627,0.00186394850794722
24.200000000000003,0.0046045009494033295,0.0019951196060412238
24.3,0.004241138264543016,0.001838008071332017
24.400000000000002,0.003872974560242349,0.001678762671894623
24.5,0.004021018210359237,0.0017428044397116292
24.6,0.004218632152152146,0.0018282749608512204
24.700000000000003,0.004955793536437038,0.0021469582287040483
24.8,0.006439785846448032,0.0027877966544923483
24.900000000000002,0.0013358049927465984,0.0005797456098579876
25.0,0.0029990292467421786,0.0013005126884268832
25.1,0.0033602630426650044,0.0014568972866833868
25.200000000000003,0.003846986522389271,0.0016675196084649916
25.3,0.004594104395857223,0.0019906251117449442
25.400000000000002,0.004386226854104058,0.001900748602539875
25.5,0.0040317156777730755,0.0017474316598934821
25.6,0.003497365525335133,0.0015162366747136342
25.700000000000003,0.0035880932388514006,0.001555500120313912
25.8,0.0029033507543675258,0.0012590823160209862
25.900000000000002,0.002731361029667744,0.0011845979763500031
26.0,0.00041627113760149705,0.0001807466408404639
26.1,0.0036425934450476935,0.001579083995327836
26.200000000000003,0.003243055643532618,0.0014061622696869272
26.3,0.005678336469877683,0.0024590949996424125
26.400000000000002,0.004456350585380812,0.0019310688973188412
26.5,0.00209087015158431,0.0009071053795519336
26.6,0.0054225785828871005,0.0023486338698297895
26.700000000000003,0.003317072957245099,0.0014382024866403825
26.8,0.004895965815023004,0.002121102740445501
26.900000000000002,0.0027383515454328764,0.001187625638551464
27.0,0.005342133071158057,0.0023138838648650104
27.1,0.004157722556642404,0.0018019325861554285
27.200000000000003,0.0028669991746026954,0.0012433404435752218
27.3,0.007142396757905677,0.0030908784524854406
27.400000000000002,0.006497651712490379,0.002812765961387612
27.5,0.0042673110198673155,0.0018493266029699254
27.6,0.00260287845127732,0.0011289471289316834
27.700000000000003,0.0036241085467911224,0.0015710851685614615
27.8,0.004438564745648073,0.0019233788066195085
27.900000000000002,0.00376176854997794,0.0016306501784966766
28.0,0.003973155032522827,0.0017221004812025362
28.1,0.004143709988897715,0.0017958721604142101
28.200000000000003,0.005914182934077183,0.002560931547014297
28.3,0.0054691038603459,0.0023687301002228225
28.400000000000002,0.0058798309842839425,0.0025461001456521
28.5,0.003939961648026083,0.0017077415892721895
28.6,0.005375654641089971,0.0023283644975390302
28.700000000000003,0.005421865043442418,0.0023483256547965417
28.8,0.008180750964637062,0.0035384012655464716
28.900000000000002,0.019009278582366295,0.008178138490013847
29.0,0.008889565340083191,0.0038436302723221277
29.1,0.004544294553614163,0.001969091364098338
29.200000000000003,0.006641895150560195,0.002875001219156309
29.3,0.008384842356313807,0.0036263089099150695
29.400000000000002,0.005601462685577616,0.0024258963762039598
29.5,0.0029795230635412335,0.0012920665086632404
29.6,0.0018160003024042775,0.000787963655703225
29.700000000000003,0.004409124697455186,0.0019106494687555994
29.8,0.01067239161065592,0.004610402304214189
29.900000000000002,0.0050459037097426995,0.002185897848615674
30.0,0.00019608965017123338,8.515230455768689e-05
30.1,0.006639251168111039,0.0028738605270179677
30.200000000000003,0.0082001543478289,0.0035467595893419186
30.3,0.0018628387013645653,0.0008082679657726346
30.400000000000002,0.005670424109681115,0.002455678094091788
30.5,0.00397071165806218,0.0017210435352758716
30.6,0.008067101739273266,0.003489441777322715
30.700000000000003,0.0027191000945313393,0.0011792875918991788
30.8,0.007999226697969144,0.0034601989339770574
30.900000000000002,0.0025370887546206514,0.0011004482683018518
31.0,0.0035494592252357953,0.0015387812473014475
31.1,0.00545657154207954,0.002363316954689762
31.200000000000003,0.004027417321098484,0.0017455723993225621
31.3,0.007021545598017375,0.0030387625439138016
31.400000000000002,0.013632176496985384,0.005880388234195617
31.5,0.010275779006167949,0.004439941062013101
31.6,0.004048724086091521,0.0017547885941402918
31.700000000000003,0.005544347273011161,0.0024012289369829518
31.8,0.0034257003574322945,0.0014852202521040872
31.900000000000002,0.007498697833175921,0.0032444934987731827
32.0,0.005874180999784204,0.0025436607250504794
32.1,0.004893822096493221,0.0021201762702904164
32.2,0.005979821805452715,0.002589269620073537
32.300000000000004,0.0013696133603789855,0.0005944085626534611
32.4,0.001867527839785576,0.0008103006414011338
32.5,0.004138559206864326,0.0017936444295330676
32.6,0.009539396143234841,0.004123271465661806
32.7,0.010627979722491089,0.0045913177206089555
32.800000000000004,0.014309280603918105,0.006170399158537306
32.9,0.01067965291406076,0.0046135225365445025
33.0,0.006311613040408719,0.002732484565280547
33.1,0.00979035158742469,0.004231216753249245
33.2,0.0080480427922034,0.0034812307427833098
33.300000000000004,0.008198709002563538,0.003546136988838964
33.4,0.00785257961573144,0.0033970117309138634
33.5,0.004243895294791694,0.0018392003759829137
33.6,0.014664361395007075,0.006322406682520909
33.7,0.011506816147495219,0.004968813656770204
33.800000000000004,0.010673133466340594,0.004610721085764617
33.9,0.0012275831191566275,0.0005328056100096817
34.0,0.012187164262160153,0.005260825636807096
34.1,0.005719718759861816,0.002476965256744935
34.2,0.011562483682584484,0.004992714077105375
34.300000000000004,0.0071077019518444,0.003075917288691299
34.4,0.01555770636367993,0.0067046060699987396
34.5,0.009337333052545777,0.004036337098341027
34.6,0.013326952308022149,0.005749594100137115
34.7,0.006695631671866217,0.0028981840927425947
34.800000000000004,0.0168772343747127,0.007268524553132816
34.9,0.009236601858584133,0.0039929926352299605
35.0,0.012998546302633886,0.005608822129088458
35.1,0.016776628888039415,0.0072255551879557775
35.2,0.018930280013069477,0.008144468558443654
35.300000000000004,0.01449675865569983,0.006250663789086524
35.4,0.016250574468720344,0.007000804101287891
35.5,0.014111159115290824,0.00608556164867399
35.6,0.012787720677840328,0.0055184271971901
35.7,0.010071188472872767,0.004351983358317924
35.800000000000004,0.005490585629449998,0.002378008668890902
35.9,0.008814675393570493,0.003811391364479453
36.0,0.011783299728089669,0.005087506762810054
36.1,0.010933578467140046,0.0047226220075854515
36.2,0.012133698948264295,0.005237884915081085
36.300000000000004,0.013341158504730749,0.005755682588732304
36.4,0.010823586649094151,0.004675367232874471
36.5,0.01677018223896236,0.007222801630372937
36.6,0.034621405980519,0.014781459577652678
36.7,0.0028551939590337385,0.001238228130417547
36.800000000000004,0.003057332258833088,0.0013257569207649291
36.9,0.00809246224308746,0.003500367427317962
37.0,0.005639466553220887,0.0024423089996450285
37.1,0.013544216443557484,0.005842699786373692
37.2,0.00957561180436391,0.004138850827636359
37.300000000000004,0.027482428835374138,0.011774403662377043
37.4,0.019741442353996646,0.00849006941543091
37.5,0.015513020600780232,0.006685496169006639
37.6,0.018010818630303113,0.007752393370559664
37.7,0.01542887128701753,0.0066495073671703556
37.800000000000004,0.0023968223072921464,0.001039681233703648
37.9,0.014255935963972396,0.006147558105576725
