Frequency (Hz),Power,Log Power
0.0,0.14062886739970537,0.05714435865164069
0.1,0.1406291175493364,0.05714445389611117
0.2,0.14062986635791902,0.0571447390048496
0.30000000000000004,0.1406311180511399,0.05714521558640915
0.4,0.14063286980400405,0.05714588256454635
0.5,0.14063511750280686,0.05714673837209942
0.6000000000000001,0.14063786554803673,0.05714778468342489
0.7000000000000001,0.14064110873501248,0.0571490195154847
0.8,0.1406448477166937,0.057150443115281536
0.9,0.14064908251839742,0.05715205549059847
1.0,0.14065380852368153,0.05715385488166079
1.1,0.14065902336969913,0.05715584038651378
1.2000000000000002,0.14066472838667932,0.05715801250907354
1.3,0.14067091714444294,0.057160368798339294
1.4000000000000001,0.1406775908117003,0.05716290969628091
1.5,0.14068474449783588,0.05716563333764715
1.6,0.14069237668195855,0.05716853913995278
1.7000000000000002,0.14070048251408482,0.05717162525302573
1.8,0.1407090604793486,0.057174891096277346
1.9000000000000001,0.14071810616822664,0.057178334986857905
2.0,0.14072761392074837,0.057181954765684245
2.1,0.14073758223729238,0.057185749857431634
2.2,0.14074800704728213,0.0571897187077937
2.3000000000000003,0.14075888283675245,0.057193859212803164
2.4000000000000004,0.14077020749007055,0.057198170562122674
2.5,0.14078197379343335,0.05720265000437678
2.6,0.14079417711005157,0.057207295769161975
2.7,0.1408068129542141,0.05721210614347189
2.8000000000000003,0.14081987618846056,0.0572170791660755
2.9000000000000004,0.1408333604499544,0.05722221240916901
3.0,0.14084726083762722,0.05722750400134577
3.1,0.14086157191938922,0.057232951868970414
3.2,0.14087628717804823,0.05723855352527809
3.3000000000000003,0.14089139907547182,0.05724430609483354
3.4000000000000004,0.14090690348171392,0.05725020799954496
3.5,0.14092279387356352,0.05725625675025033
3.6,0.140939061611621,0.057262449052255436
3.7,0.1409557010645572,0.05726878275590417
3.8000000000000003,0.1409727024659081,0.05727525413754793
3.9000000000000004,0.14099006365565506,0.05728186236886393
4.0,0.14100777334468853,0.057288603146702456
4.1000000000000005,0.1410258227985738,0.057295473140410835
4.2,0.14104420788705263,0.05730247077183181
4.3,0.14106291694155879,0.05730959159367702
4.4,0.1410819474982583,0.05731683466215279
4.5,0.1411012832672405,0.057324193771324486
4.6000000000000005,0.14112092222107198,0.057331668143678786
4.7,0.1411408542256512,0.05733925391643422
4.800000000000001,0.14116106771674392,0.05734694668272197
4.9,0.14118155380225503,0.05735474305282839
5.0,0.1412023080669,0.05736264134089654
5.1000000000000005,0.1412233187868776,0.057370637079850746
5.2,0.14124457434711907,0.0573787258442541
5.300000000000001,0.14126606432829142,0.05738690366395973
5.4,0.141287787661451,0.05739517012716869
5.5,0.14130972407449408,0.057403517514816926
5.6000000000000005,0.14133186394286387,0.05741194215994196
5.7,0.14135419898913734,0.05742044090841859
5.800000000000001,0.14137672414309038,0.05742901182667003
5.9,0.14139944172066013,0.05743765579161817
6.0,0.14142229033946407,0.05744634944380012
6.1000000000000005,0.141445315166565,0.05745510996528891
6.2,0.14146848319134417,0.05746392479248548
6.300000000000001,0.14149178145975896,0.05747278899355586
6.4,0.1415152063415305,0.05748170118431776
6.5,0.14153872173888785,0.05749064762854039
6.6000000000000005,0.14156233938786147,0.0574996327889433
6.7,0.1415860415591899,0.05750864991836273
6.800000000000001,0.14160985095647863,0.05751770765177427
6.9,0.14163367187947137,0.057526769580829515
7.0,0.1416575811265261,0.05753586491989246
7.1000000000000005,0.14168151176183355,0.05754496820454709
7.2,0.14170549684373368,0.057554092009384696
7.300000000000001,0.14172945063468456,0.0575632037200051
7.4,0.14175344888027963,0.05757233214889759
7.5,0.1417774070577016,0.05758144514531202
7.6000000000000005,0.14180135808430339,0.05759055523062919
7.7,0.1418252686952931,0.05759964975272867
7.800000000000001,0.14184910494250108,0.057608715800630775
7.9,0.1418729759209973,0.05761779486881147
8.0,0.1418966308118136,0.057626791563155456
8.1,0.1419202112091624,0.057635759739816196
8.200000000000001,0.1419437947943698,0.05764472894366765
8.3,0.14196712946347304,0.05765360329854837
8.4,0.14199043897972755,0.057662467906565075
8.5,0.1420136855870212,0.0576713084101022
8.6,0.1420368097993031,0.05768010218923538
8.700000000000001,0.14205922872407378,0.05768862758847796
8.8,0.14208201357706002,0.057697291970294565
8.9,0.14210430696652915,0.05770576929628377
9.0,0.14212659664324126,0.057714245045022226
9.1,0.14214867250674704,0.05772263932729953
9.200000000000001,0.14217053837185778,0.05773095359836525
9.3,0.1421916869443226,0.05773899497483355
9.4,0.14221302840954284,0.05774710954447947
9.5,0.14223388358909717,0.05775503906943553
9.600000000000001,0.14225457623329835,0.05776290665235475
9.700000000000001,0.14227476899349573,0.05777058403618588
9.8,0.14229458280941637,0.05777811721167316
9.9,0.14231456717854143,0.05778571509880901
10.0,0.14233378620357895,0.05779302188325062
10.100000000000001,0.1423530587972384,0.05780034891023181
10.200000000000001,0.14237095837083763,0.057807153833701205
10.3,0.14238959080027505,0.05781423725545602
10.4,0.14240675138252987,0.057820761028312295
10.5,0.14242430263720865,0.05782743321796438
10.600000000000001,0.14244175648976024,0.05783406827809925
10.700000000000001,0.1424571179343754,0.0578399078281163
10.8,0.1424732764807138,0.0578460503062658
10.9,0.14248838595225,0.05785179391257711
11.0,0.14250368593363746,0.05785760986053747
11.100000000000001,0.14251719413671596,0.05786274463904972
11.200000000000001,0.14253162275127038,0.057868229220067145
11.3,0.14254515894912553,0.05787337451416111
11.4,0.14255708632001196,0.057877908220580934
11.5,0.14256897362868978,0.05788242665188668
11.600000000000001,0.1425813746666828,0.05788714030442545
11.700000000000001,0.14259264834886323,0.057891425402989
11.8,0.14260206659952368,0.057895005224230744
11.9,0.14261234678933657,0.05789891262975249
12.0,0.14261987575579257,0.05790177429829896
12.100000000000001,0.1426300016863579,0.05790562301157282
12.200000000000001,0.14263658897817685,0.057908126723392996
12.3,0.14264245985828333,0.05791035812776829
12.4,0.14264910736224398,0.05791288469753291
12.5,0.14265532150054774,0.057915246541268915
12.600000000000001,0.14266112492744337,0.057917452271929
12.700000000000001,0.14266251769153757,0.0579179816234391
12.8,0.14266677099733646,0.05791959818456003
12.9,0.14266603745310127,0.05791931938559266
13.0,0.14267268081996023,0.05792184433084046
13.100000000000001,0.14267180508573535,0.0579215114912674
13.200000000000001,0.14267125666182529,0.05792130305212155
13.3,0.14266797470071224,0.05792005567704333
13.4,0.14267030961228866,0.057920943107337815
13.5,0.14266158202981402,0.05791762600409962
13.600000000000001,0.14266052345996894,0.057917223670405533
13.700000000000001,0.14265113423832004,0.05791365506553911
13.8,0.1426496524220782,0.057913091862112395
13.9,0.14264535301227796,0.0579114577536518
14.0,0.14263295116662603,0.057906744058061836
14.100000000000001,0.14262162459342784,0.057902439007507654
14.200000000000001,0.14261441031322314,0.05789969695195112
14.3,0.1426019481663702,0.0578949602086744
14.4,0.14259341168542136,0.05789171554378826
14.5,0.14258397771511305,0.05788812972041511
14.600000000000001,0.1425707605899854,0.05788310588162343
14.700000000000001,0.1425522272905644,0.05787606126326999
14.8,0.142534130632493,0.05786918250464959
14.9,0.14251275578553452,0.05786105752643491
15.0,0.14250363682921208,0.05785759119470583
15.100000000000001,0.1424769485880147,0.057847446201826455
15.200000000000001,0.1424614040214649,0.05784153714133165
15.3,0.14243930848511385,0.05783313767831804
15.4,0.14241847865501525,0.057825219215889484
15.5,0.1423932217451504,0.0578156176048834
15.600000000000001,0.14236641219521884,0.057805425513404556
15.700000000000001,0.14233951954812926,0.057795201590865486
15.8,0.14231393930603603,0.05778547638904616
15.9,0.1422762353888733,0.05777114156142349
16.0,0.1422530941492479,0.05776234315157676
16.1,0.14220339755321956,0.05774344766592729
16.2,0.14219495560528728,0.057740237812971086
16.3,0.14215818699918473,0.05772625713507927
16.400000000000002,0.1421185862538556,0.057711199077860625
16.5,0.14207646569233612,0.05769518229555556
16.6,0.14203640801913642,0.05767994939999197
16.7,0.14200022896745046,0.057666190984514275
16.8,0.14195856360673229,0.057650345658138605
16.900000000000002,0.14191850009965068,0.057635108971077355
17.0,0.14189388719532092,0.05762574808960224
17.1,0.14184482144809837,0.05760708659983388
17.2,0.14180114850704442,0.05759047551601441
17.3,0.14169081792278612,0.0575485082442479
17.400000000000002,0.14166991871637669,0.057540558199496404
17.5,0.1416211081850588,0.05752199013772635
17.6,0.1415796770087471,0.05750622864064769
17.7,0.14149936884093556,0.05747567569574628
17.8,0.14146133007184858,0.057461203236783415
17.900000000000002,0.14141533953495666,0.057443704756326236
18.0,0.1413329963278015,0.05741237304976582
18.1,0.14122616538426377,0.05737172035599379
18.2,0.14122179012526384,0.05737005534467477
18.3,0.14121199965124875,0.05736632954210461
18.400000000000002,0.14110723604704342,0.057326459348197495
18.5,0.1410538414723401,0.0573061374091461
18.6,0.14099208864357507,0.05728263313832739
18.7,0.14099099050401076,0.057282215154550446
18.8,0.1408467635554465,0.05722731469734204
18.900000000000002,0.1407663855917847,0.05719671555207289
19.0,0.1406828324263276,0.05716490535140466
19.1,0.14058042675933496,0.057125914484444124
19.200000000000003,0.14050381876257698,0.05709674376850982
19.3,0.14042461044301863,0.05706658084390567
19.400000000000002,0.14031458261266483,0.0570246782188611
19.5,0.14022616047552672,0.05699100090230996
19.6,0.14019613689630922,0.0569795652355065
19.700000000000003,0.14018622681357581,0.0569757905227085
19.8,0.14007155263659152,0.056932109178632465
19.900000000000002,0.13979424693031983,0.05682646055786647
20.0,0.13977673382524755,0.05681978750845649
20.1,0.13966421571354218,0.05677691208755347
20.200000000000003,0.1396318440099492,0.05676457595229693
20.3,0.13953566212509677,0.0567279211107701
20.400000000000002,0.13951528179843853,0.05672015378689275
20.5,0.13940995604316517,0.05668000995629176
20.6,0.13922510083818398,0.056609545319659296
20.700000000000003,0.1391297553620974,0.05657319627240678
20.8,0.138979847824759,0.0565160400967209
20.900000000000002,0.13888722726604572,0.056480722322455656
21.0,0.13874060284394155,0.05642480609533702
21.1,0.13869585500181938,0.05640773976547628
21.200000000000003,0.13856548285665687,0.05635801345399985
21.3,0.1385388750861034,0.05634786406590759
21.400000000000002,0.13835816697620712,0.056278927672493116
21.5,0.1381977604026203,0.05621772672500291
21.6,0.13807085598500085,0.056169301958293366
21.700000000000003,0.13799597903063018,0.056140727535419384
21.8,0.13778339048168642,0.05605958958749037
21.900000000000002,0.13770845462578218,0.056030985460608924
22.0,0.13750289622787704,0.05595251109986127
22.1,0.13755232756132896,0.05597138339371175
22.200000000000003,0.13732253776629205,0.055883645433402206
22.3,0.13720513344835475,0.055838811467983945
22.400000000000002,0.13688233942607525,0.055715520112412896
22.5,0.13691109231983387,0.05572650371622178
22.6,0.1368659826324329,0.05570927169419383
22.700000000000003,0.13666766119295468,0.055633504258545005
22.8,0.13651405376008074,0.05557481043733471
22.900000000000002,0.13638454878258258,0.05552532006666489
23.0,0.13640552266881117,0.055533335627070454
23.1,0.13597883730423635,0.05537024076971649
23.200000000000003,0.13575079732612358,0.05528305037261059
23.3,0.1358544003255444,0.05532266483645738
23.400000000000002,0.13568839698547244,0.05525918874013693
23.5,0.13538211214457355,0.055142047668061224
23.6,0.13543214136499226,0.05516118390021387
23.700000000000003,0.13537562417931687,0.055139565952407765
23.8,0.13492357441067304,0.054966617186197414
23.900000000000002,0.13491117498469352,0.05496187234538196
24.0,0.13530575268883788,0.05511283846604522
24.1,0.13427727006293638,0.054719229282984366
24.200000000000003,0.13406146802705532,0.05463659468165641
24.3,0.13390226132335584,0.054575621402306755
24.400000000000002,0.13376913905909663,0.05452463141774122
24.5,0.1338033123150901,0.05453772141316671
24.6,0.13322949716520574,0.05431787037483412
24.700000000000003,0.1333163552190208,0.05435115624324888
24.8,0.13362441436859457,0.0544691905486688
24.900000000000002,0.13250772641586112,0.05404117362378954
25.0,0.13263057504247647,0.05408828110562975
25.1,0.13267020900904303,0.0541034780393868
25.200000000000003,0.13248060026290262,0.054030771152035535
25.3,0.13196126146375972,0.05383156446673909
25.400000000000002,0.13225265365997907,0.053943347211948
25.5,0.13207003521341862,0.053873295196661786
25.6,0.13178476404205353,0.053763843215672194
25.700000000000003,0.13134477646106738,0.05359497600987073
25.8,0.1311195649109164,0.05350851441838758
25.900000000000002,0.13134773490566803,0.053596111680014706
26.0,0.12833528732119884,0.05243817038901585
26.1,0.13082755376844338,0.0533963819750713
26.200000000000003,0.13086182608306934,0.053409544062896344
26.3,0.1305905221023039,0.053305340388275745
26.400000000000002,0.13006430000554203,0.053103155291487104
26.5,0.1300054168888353,0.05308052535889906
26.6,0.1297885505977543,0.05299716923425091
26.700000000000003,0.12928475756605842,0.05280346632383786
26.8,0.12966354092168392,0.05294911243963152
26.900000000000002,0.1290604598274694,0.05271719849397493
27.0,0.12899057494104701,0.05269031635527738
27.1,0.12791480357751142,0.052276296692066876
27.200000000000003,0.12866154966592083,0.05256373010148908
27.3,0.12840940268418585,0.05246669633909214
27.400000000000002,0.1286434695809555,0.05255677306106607
27.5,0.1284305595172408,0.052474838959751566
27.6,0.12754393968050706,0.0521334750634832
27.700000000000003,0.12752620733425285,0.05212664506740546
27.8,0.12767735817260795,0.05218486063262973
27.900000000000002,0.1256629153452634,0.05140835861261023
28.0,0.12681556317093196,0.05185283667420792
28.1,0.12688148874149427,0.05187824480215071
28.200000000000003,0.12640348781748245,0.05169398655792813
28.3,0.12710789253842847,0.05196549092747665
28.400000000000002,0.12559280446784438,0.05138130813857811
28.5,0.1262750763203875,0.051644473586526435
28.6,0.12616494021531005,0.0516020027527813
28.700000000000003,0.12650562907924706,0.05173336620804955
28.8,0.1269496977131651,0.0519045314026735
28.900000000000002,0.13350379615931465,0.054422978938303335
29.0,0.12190559980832667,0.04995631573733883
29.1,0.12317344780143175,0.05044682803927039
29.200000000000003,0.12347463784381682,0.050563272777573144
29.3,0.12195821606764982,0.0499766832399697
29.400000000000002,0.12265200409059383,0.05024515597244198
29.5,0.12331581879172834,0.05050187476170183
29.6,0.1222689004380992,0.05009692820766426
29.700000000000003,0.1255096230914109,0.05134921256411081
29.8,0.12349167598097775,0.05056985905250349
29.900000000000002,0.12221890832385748,0.05007758187905179
30.0,0.12212142872365227,0.0500398560031719
30.1,0.12068108658148233,0.04948204252996201
30.200000000000003,0.12247870305079922,0.05017810982212122
30.3,0.12220329793060335,0.0500715406737636
30.400000000000002,0.12150120519488702,0.049799744623585544
30.5,0.12092453748503033,0.04957637614806667
30.6,0.1219501684931723,0.049973568124207994
30.700000000000003,0.12105845825155755,0.04962825972621582
30.8,0.12146256551756054,0.04978478138711587
30.900000000000002,0.12148093974449176,0.049791896880972006
31.0,0.12089128028028252,0.049563490682283044
31.1,0.12141648940012457,0.04976693771114156
31.200000000000003,0.11995100565275112,0.04919902406297605
31.3,0.1186645913805498,0.04869989175808638
31.400000000000002,0.1200153802366543,0.049223986514866244
31.5,0.1176359644862277,0.048300368523631905
31.6,0.11896944724921064,0.048818228554960895
31.700000000000003,0.11910160752896706,0.04886951958092646
31.8,0.11917475684168892,0.048897906015584094
31.900000000000002,0.11794178634842267,0.048419189484321425
32.0,0.11600759233667175,0.04766714917029224
32.1,0.11828889003947045,0.04855401029728375
32.2,0.11856818169144097,0.04866246141421532
32.300000000000004,0.11893738678645878,0.0488057850681726
32.4,0.1180389644949606,0.04845693930199198
32.5,0.1176324377026831,0.048298998072879094
32.6,0.11948890618151163,0.04901979420086856
32.7,0.11799721923636496,0.04844072334306632
32.800000000000004,0.12061596010073498,0.04945680350931179
32.9,0.11733154848674171,0.04818206148889424
33.0,0.11723808775684008,0.04814573281187628
33.1,0.11621680808009564,0.047748557870193005
33.2,0.11937339363939774,0.04897497995777801
33.300000000000004,0.11400374625356517,0.046886651317526555
33.4,0.11590584555467161,0.04762755259342281
33.5,0.11721325467735033,0.048136079552316184
33.6,0.1167854899902557,0.047969762676917584
33.7,0.11940715680394684,0.048988079192585514
33.800000000000004,0.12588792165078133,0.05149516011457906
33.9,0.12165759023157495,0.04986029955062353
34.0,0.11795425556819218,0.048424033460282845
34.1,0.1163923071606692,0.04781683518923545
34.2,0.11882802615959186,0.048763336725241885
34.300000000000004,0.12811141203833545,0.05235199259423016
34.4,0.11797515836677222,0.048432153546742934
34.5,0.11321261259479908,0.04657811820574711
34.6,0.11378187616856263,0.04680014662608339
34.7,0.12233392597294969,0.05012209099427752
34.800000000000004,0.120165564077038,0.049282217537153034
34.9,0.11759369595701578,0.048283943375628614
35.0,0.11638557273166451,0.047814215380626766
35.1,0.1214786357260744,0.04979100464689359
35.2,0.11767103594463169,0.04831399648690989
35.300000000000004,0.11875515971567989,0.04873505130129183
35.4,0.11545658920271729,0.04745267328720979
35.5,0.12044844290444376,0.049391877401868206
35.6,0.12475222275470746,0.051056860098684924
35.7,0.11695168846543968,0.04803438897360323
35.800000000000004,0.11083817464197364,0.045650796133567526
35.9,0.1529913041396053,0.06182603185807615
36.0,0.13484192185757873,0.05493537056330555
36.1,0.12550764324006378,0.051348448608606795
36.2,0.12449028770073108,0.05095570875680472
36.300000000000004,0.1242972674789806,0.05088115514482415
36.4,0.11879411784549278,0.04875017436559648
36.5,0.12264443833674865,0.05024222917392724
36.6,0.1293065608799086,0.05281185124838378
36.7,0.13020374354356365,0.0531567414662326
36.800000000000004,0.12556689982857686,0.051371313075261486
36.9,0.12543187849326534,0.05131921262856196
37.0,0.13081713228360392,0.0533923795839027
37.1,0.1253196545251343,0.05127590420520026
37.2,0.13071181957881206,0.053351931968530976
37.300000000000004,0.12216803689431457,0.05005789438159254
37.4,0.1251957591378605,0.05122808664060687
37.5,0.13741945995981222,0.055920654266832355
37.6,0.13164972172224987,0.053712020965235883
37.7,0.12885714074495502,0.05263898451856865
37.800000000000004,0.12762576233336378,0.05216498943387778
37.9,0.130681956379893,0.05334046167738473
38.0,0.13800905864234334,0.05614571909132409
38.1,0.1317453806362892,0.05374873054236059
38.2,0.12932904905262377,0.0528204993802698
38.300000000000004,0.1350794697044537,0.05502626861805399
38.400000000000006,0.13095053685991628,0.05344361108058612
38.5,0.14480444708356618,0.058731307806316455
38.6,0.14050718516760585,0.05709802566598897
38.7,0.1388003480719883,0.05644759121615455
38.800000000000004,0.13842690703896882,0.05630515186931597
38.900000000000006,0.14894842843845027,0.06030053543566843
39.0,0.1539035414931874,0.062169506265023815
39.1,0.13893009734331666,0.05649706975980158
39.2,0.14083233330452935,0.05722182139343749
39.300000000000004,0.14015455266673044,0.05696372574070872
39.400000000000006,0.14245612210406727,0.05783952927229178
39.5,0.15099559345424687,0.06107366095197409
39.6,0.14284110502898267,0.057985852437186264
39.7,0.16599560713582603,0.06669691423065881
39.800000000000004,0.1332229163612964,0.05431534836571778
39.900000000000006,0.15316033436124732,0.06188969540165228
40.0,0.15067666652952544,0.060953306541112556
40.1,0.15875246731977774,0.06399067189233668
40.2,0.15562108423371007,0.06281545691984244
