Frequency (Hz),Power,Log Power
0.0,0.2752512877296178,0.10559577074749807
0.1,0.27525168608254125,0.10559590640895647
0.2,0.2752529168156647,0.10559632554217707
0.30000000000000004,0.2752549548454976,0.10559701960403058
0.4,0.2752578148821547,0.1055979936027911
0.5,0.27526148633415665,0.1055992439296122
0.6000000000000001,0.2752659819575445,0.10560077492620354
0.7000000000000001,0.27527128298796616,0.10560258019938437
0.8,0.27527740910240706,0.10560466644671258
0.9,0.2752843470807292,0.10560702916205836
1.0,0.2752920996197791,0.10560966925930731
1.1,0.27530067655238727,0.10561259008190062
1.2000000000000002,0.2753100630008724,0.1056157865577239
1.3,0.27532026138095533,0.10561925950333427
1.4000000000000001,0.27533127815157216,0.10562301111159057
1.5,0.27534311007871554,0.10562704027398966
1.6,0.2753557590523694,0.10563134762639893
1.7000000000000002,0.275369214881096,0.10563592969010643
1.8,0.2753834883583126,0.10564079013179875
1.9000000000000001,0.2753985797835228,0.10564592904411492
2.0,0.2754144841474966,0.10565134471146409
2.1,0.27543119465881266,0.10565703481095912
2.2,0.27544872706593926,0.10566300469421776
2.3000000000000003,0.27546706653130415,0.10566924929753169
2.4000000000000004,0.2754862274142756,0.10567577349831793
2.5,0.27550618612418554,0.10568256925163648
2.6,0.2755269646593341,0.10568964403477252
2.7,0.2755485515053614,0.10569699391371747
2.8000000000000003,0.27557095316363267,0.10570462108802665
2.9000000000000004,0.27559416373595585,0.10571252353496378
3.0,0.2756181841458466,0.1057207015539183
3.1,0.27564301369146654,0.10572915489037818
3.2,0.27566865207623265,0.105737883427294
3.3000000000000003,0.27569509658335756,0.10574688622317324
3.4000000000000004,0.27572235866335837,0.10575616715905903
3.5,0.27575041684458423,0.10576571890767734
3.6,0.2757792957529395,0.10577554983418448
3.7,0.27580897320154635,0.10578565236704553
3.8000000000000003,0.27583946233621454,0.10579603096212208
3.9000000000000004,0.27587075435642927,0.10580668260400411
4.0,0.27590285872617215,0.10581761049396557
4.1000000000000005,0.27593576102981693,0.10582880970445245
4.2,0.2759694688232473,0.1058402827862217
4.3,0.27600398903036255,0.10585203207414559
4.4,0.27603930320813486,0.10586405126879418
4.5,0.2760754297215663,0.10587634659802235
4.6000000000000005,0.2761123576741243,0.10588891432999269
4.7,0.2761500886976658,0.10590175499639448
4.800000000000001,0.276188624381867,0.10591486911398433
4.9,0.27622796398474164,0.1059282564054852
5.0,0.2762681092891105,0.10594191745229015
5.1000000000000005,0.27630904608175605,0.10595584739216826
5.2,0.27635079552213926,0.10597005339900632
5.300000000000001,0.27639334100543234,0.10598452979588566
5.4,0.27643669293082895,0.10599928009397144
5.5,0.27648083836242987,0.10601429986418526
5.6000000000000005,0.27652578736670436,0.10602959250332589
5.7,0.2765715465970144,0.10604516024604962
5.800000000000001,0.2766180938118782,0.10606099549639346
5.9,0.2766654548727455,0.10607710702259252
6.0,0.2767135933985971,0.10609348241829485
6.1000000000000005,0.2767625533176623,0.10611013659594548
6.2,0.27681232021153385,0.10612706461917804
6.300000000000001,0.27686286988291325,0.10614425822581221
6.4,0.27691422719417713,0.10616172584028478
6.5,0.27696639825976355,0.106179469509019
6.6000000000000005,0.27701933951100866,0.10619747438112465
6.7,0.27707309497168137,0.1062157553952575
6.800000000000001,0.277127705003378,0.10623432624170488
6.9,0.2771830435695635,0.10625314402567887
7.0,0.27723917786903024,0.10627223156438192
7.1000000000000005,0.27729618594371436,0.10629161535731282
7.2,0.2773539116308464,0.10631124227014407
7.300000000000001,0.27741252399709354,0.10633116974913544
7.4,0.2774719381708398,0.10635136889957975
7.5,0.2775320883248159,0.10637181730568109
7.6000000000000005,0.2775930376747572,0.10639253642122713
7.7,0.2776548466740636,0.10641354675646736
7.800000000000001,0.27771744991225006,0.10643482603615231
7.9,0.2777808445594192,0.10645637325887045
8.0,0.27784515684599825,0.1064782312859608
8.1,0.2779101790450514,0.10650032947498499
8.200000000000001,0.27797584064504244,0.10652264382729625
8.3,0.2780424416700122,0.10654527626137554
8.4,0.27810995252264675,0.10656821667043813
8.5,0.2781785671318181,0.10659153089801383
8.6,0.27824748537243016,0.10661494703522482
8.700000000000001,0.27831698260544935,0.10663855861646458
8.8,0.27838719933325257,0.10666241334134464
8.9,0.2784598599383535,0.1066870969451145
9.0,0.2785321786445134,0.10671166300911322
9.1,0.27860526752721304,0.10673648928390037
9.200000000000001,0.27867890728764916,0.10676150124145276
9.3,0.2787538220273671,0.1067869447713717
9.4,0.2788297395093122,0.10681272734519981
9.5,0.2789063067894937,0.10683872904880422
9.600000000000001,0.278982824920276,0.10686471250646251
9.700000000000001,0.27906142974731096,0.1068914029302742
9.8,0.2791404147973577,0.10691822080742659
9.9,0.2792192877970356,0.10694499898760775
10.0,0.27930106322559517,0.10697276082845188
10.100000000000001,0.2793844483171625,0.10700106730456249
10.200000000000001,0.27946700458693513,0.1070290906057045
10.3,0.2795480409139666,0.10705659621161101
10.4,0.2796292327059224,0.10708415283896745
10.5,0.27971623244931565,0.1071136787540982
10.600000000000001,0.27980764329459246,0.10714469954361527
10.700000000000001,0.2798925613846595,0.10717351499464035
10.8,0.279978521208366,0.10720268199243883
10.9,0.28006371403664476,0.10723158680871366
11.0,0.2801579726277173,0.10726356527855205
11.100000000000001,0.2802421797104188,0.10729213165036255
11.200000000000001,0.28033041578629286,0.10732206280009013
11.3,0.2804281255558152,0.10735520517807468
11.4,0.28052156151749097,0.10738689554886949
11.5,0.2806085236227163,0.10741638812534397
11.600000000000001,0.28070905620806524,0.10745048053733906
11.700000000000001,0.28080757341457646,0.10748388690190191
11.8,0.2809008314850362,0.10751550756983903
11.9,0.2810023609751008,0.10754993017990358
12.0,0.2810932040783962,0.10758072735939585
12.100000000000001,0.2811917807960352,0.10761414388003158
12.200000000000001,0.2812990834721323,0.10765051549079475
12.3,0.2813999659455558,0.10768470811404574
12.4,0.2815007596143206,0.10771886795000145
12.5,0.28158501533067765,0.10774742087090133
12.600000000000001,0.2817067224893254,0.10778866217532934
12.700000000000001,0.2818126336530298,0.10782454771205033
12.8,0.28190435610822234,0.10785562333883196
12.9,0.2820279498618233,0.10789749346551443
13.0,0.2821317351613008,0.10793264992098302
13.100000000000001,0.2822521397237517,0.10797343245562527
13.200000000000001,0.28235324035707665,0.10800767354981754
13.3,0.28245844307464135,0.10804330108539091
13.4,0.28256342138380947,0.1080788497105691
13.5,0.2826752359263918,0.10811671007785491
13.600000000000001,0.28279608615332896,0.10815762621383561
13.700000000000001,0.2829155114316865,0.10819805611989103
13.8,0.28303203149370304,0.10823749887478228
13.9,0.28313927766763436,0.10827379919612438
14.0,0.2832623167505593,0.10831544131085016
14.100000000000001,0.2833796706997874,0.1083551555934529
14.200000000000001,0.28350255398085983,0.10839673719031431
14.3,0.2836264965550136,0.10843867320132898
14.4,0.28375384281564475,0.10848175663347998
14.5,0.28387903150667443,0.10852410595709057
14.600000000000001,0.2839819692253688,0.10855892504053771
14.700000000000001,0.2841137970481892,0.10860351223764655
14.8,0.2842554261777859,0.10865140936160106
14.9,0.28437298845396675,0.1086911633778458
15.0,0.2845179904466228,0.10874019120024826
15.100000000000001,0.28462778819108103,0.10877731214135572
15.200000000000001,0.28475629503761385,0.10882075431471301
15.3,0.2848907416661056,0.10886619980048111
15.4,0.2850059760032749,0.10890514738654382
15.5,0.28513573079993426,0.10894899850345958
15.600000000000001,0.28532340641667586,0.10901241634481205
15.700000000000001,0.28543576520644853,0.10905037929595995
15.8,0.285577621765592,0.10909830399462736
15.9,0.28573827188882617,0.10915257150979396
16.0,0.2858621266349802,0.10919440493996815
16.1,0.28601360021184036,0.10924556148534388
16.2,0.28615201531841994,0.1092923025790702
16.3,0.2862684640468144,0.10933162199874259
16.400000000000002,0.28643827100597474,0.10938895167760133
16.5,0.2865786479592655,0.10943633957918233
16.6,0.2867763860063583,0.10950308244345894
16.7,0.2868982094024533,0.10954419659893502
16.8,0.2870449038374576,0.10959369931202109
16.900000000000002,0.28715889013904083,0.10963216061950451
17.0,0.2873488290230833,0.10969624231463722
17.1,0.2874397518354469,0.10972691456167032
17.2,0.2876551906370999,0.10979958285938693
17.3,0.28787479737154975,0.10987364450389157
17.400000000000002,0.28798537868896507,0.1099109329067567
17.5,0.2881384828851203,0.1099625548870633
17.6,0.28831581281463226,0.11002233736417809
17.7,0.2886089444873843,0.11012114154395522
17.8,0.2886403018099998,0.11013170964263591
17.900000000000002,0.2887095194175922,0.11015503656922353
18.0,0.28884204626226445,0.11019969575522184
18.1,0.28910715090166317,0.11028901751730334
18.2,0.2893969239565016,0.11038662980380497
18.3,0.2896320449896578,0.11046581601597366
18.400000000000002,0.28968450554467784,0.11048348219158226
18.5,0.28965339381033545,0.11047300535211779
18.6,0.28980083104203486,0.1105226524252133
18.7,0.29014569330130374,0.11063875698451021
18.8,0.29054464099874716,0.11077303174242674
18.900000000000002,0.2908049492455578,0.11086062192083128
19.0,0.2909873599949714,0.110921990127529
19.1,0.29218435879872173,0.1113244798332961
19.200000000000003,0.29105098102041105,0.11094339202528401
19.3,0.2907856050777686,0.11085411347950318
19.400000000000002,0.2909195588991213,0.11089918090726936
19.5,0.2916087143726933,0.11113096650245348
19.6,0.29231817678570754,0.11136945283106192
19.700000000000003,0.2923101618882445,0.11136675934845233
19.8,0.2926137624776306,0.1114687755509691
19.900000000000002,0.2924657347999111,0.11141903812220492
20.0,0.2927322263961442,0.11150857542794691
20.1,0.29304465888037967,0.11161352470280793
20.200000000000003,0.293108010425122,0.11163480204395929
20.3,0.2931168715173993,0.1116377780600873
20.400000000000002,0.2936254525248142,0.11180855187541028
20.5,0.2935245450252893,0.11177467400185055
20.6,0.2936803410508197,0.11182697859870432
20.700000000000003,0.2937084178995007,0.11183640402455858
20.8,0.295708225178015,0.11250721568472406
20.900000000000002,0.29531258255690346,0.11237458424619835
21.0,0.2945593912718763,0.11212197961443869
21.1,0.2944868230331337,0.11209763398052805
21.200000000000003,0.2942901254181878,0.11203163780500584
21.3,0.29387200774668715,0.1118913172302074
21.400000000000002,0.2962982678677687,0.11270494072080028
21.5,0.2981727789538084,0.11333249828293623
21.6,0.29829601292618385,0.11337372337633476
21.700000000000003,0.29607301107458567,0.1126294671315568
21.8,0.30016424410563697,0.11399821830925935
21.900000000000002,0.2936316498378903,0.11181063242540216
22.0,0.29104548924487217,0.11094154465215926
22.1,0.29471842774913765,0.11217532936630807
22.200000000000003,0.3052289834247794,0.11568670900312848
22.3,0.30599110892544246,0.11594022030983436
22.400000000000002,0.29195810985842935,0.1112484324266626
22.5,0.2931435399244567,0.11164673457658914
22.6,0.29954030947813665,0.11378975510476103
22.700000000000003,0.30122428736296175,0.11435216079585628
22.8,0.30223478477987475,0.11468929186803352
22.900000000000002,0.30372493521033805,0.11518597197765204
23.0,0.30436674739018177,0.11539971867652041
23.1,0.3001012757594132,0.11397718445321971
23.200000000000003,0.29782407223966506,0.1132158252580084
23.3,0.2996665158884891,0.11383193008453181
23.400000000000002,0.3019427417679386,0.1145918847843758
23.5,0.30259999803721804,0.11481107318366066
23.6,0.3040557687307802,0.11529616465827923
23.700000000000003,0.3024234029180872,0.11475219134339856
23.8,0.30338558981139996,0.11507291514048625
23.900000000000002,0.30429556940269603,0.11537601901481515
24.0,0.301087089506553,0.11430636745033111
24.1,0.2997273010788374,0.1138522414914315
24.200000000000003,0.3024021232585992,0.11474509556013034
24.3,0.3055549442219054,0.11579515380757598
24.400000000000002,0.30754724742933726,0.11645739079140716
24.5,0.3053821127966409,0.11573765741240269
24.6,0.30817717870267575,0.1166665685461774
24.700000000000003,0.30604759737894954,0.11595900458251299
24.8,0.29758529295226277,0.11313591452901514
24.900000000000002,0.30563167891926785,0.11582067895032089
25.0,0.3082353309997906,0.11668587377549997
25.1,0.30981637170817256,0.11721041447733221
25.200000000000003,0.31145237670091536,0.11775252450203035
25.3,0.3072462808006432,0.11635741490784704
25.400000000000002,0.310187272188255,0.11733337616350116
25.5,0.31033216692320875,0.11738140250741773
25.6,0.30742772463649504,0.11641769015183412
25.700000000000003,0.3099425063674829,0.11725223480439823
25.8,0.3111746733976883,0.11766055182704094
25.900000000000002,0.31224914416202504,0.11801629819702243
26.0,0.3110243204668264,0.11761074824734644
26.1,0.3121634659642251,0.11798794170430212
26.200000000000003,0.3114972642188482,0.11776738898973713
26.3,0.3122164105716018,0.11800546473977341
26.400000000000002,0.3079322966372563,0.1165852638981557
26.5,0.31012758249798295,0.11731359006560549
26.6,0.31040171371526054,0.11740445237772494
26.700000000000003,0.31275569365297606,0.11818391057494455
26.8,0.3179142778501119,0.11988716301414153
26.900000000000002,0.3151197209877667,0.11896529031448953
27.0,0.31426558622205175,0.1186831361337521
27.1,0.3155744233424881,0.11911542158380185
27.200000000000003,0.31274446146695445,0.11818019465331381
27.3,0.31383827494599437,0.11854190965208664
27.400000000000002,0.31529495020093423,0.11902315273541728
27.5,0.3183101740251975,0.12001760374760527
27.6,0.31936556961579227,0.12036514647099412
27.700000000000003,0.3178627907758182,0.11987019606156876
27.8,0.3164951084414645,0.11941924978403413
27.900000000000002,0.3161394868303478,0.119301919027559
28.0,0.3150502494985928,0.11894234800677296
28.1,0.31601695464392876,0.11926148446096767
28.200000000000003,0.31963361181013034,0.1204533687388432
28.3,0.32402951667492436,0.12189766696633679
28.400000000000002,0.32500228467389075,0.12221662711841778
28.5,0.32237526415363715,0.12135471689275149
28.6,0.3228529726984048,0.12151157760088675
28.700000000000003,0.3191635219033722,0.1202986334982634
28.8,0.3211015076567797,0.12093618818345071
28.900000000000002,0.3172530022685503,0.1196691970851589
29.0,0.3287930830371823,0.12345735875203628
29.1,0.32732860885676124,0.122978455152223
29.200000000000003,0.33159063845396997,0.12437073325387397
29.3,0.3283323033801134,0.12330673427231302
29.400000000000002,0.32157310664046274,0.12109119238816878
29.5,0.3222398095637471,0.1213102286180125
29.6,0.3296433214536518,0.12373515653161926
29.700000000000003,0.3231723972840983,0.12161643248035882
29.8,0.32704630007015356,0.12288607547498412
29.900000000000002,0.33305151348812007,0.12484693230310474
30.0,0.3320784251895176,0.12452979437212879
30.1,0.3244311143168007,0.12202937490196404
30.200000000000003,0.33322945831106787,0.12490490102854793
30.3,0.32499584918136204,0.12221451775927687
30.400000000000002,0.329044833125999,0.12353963139481393
30.5,0.3311702501431997,0.12423360316012588
30.6,0.33250519013916346,0.12466890928916084
30.700000000000003,0.33860435845392944,0.12665223471903492
30.8,0.3443364033583403,0.1285079590757549
30.900000000000002,0.3348501626352657,0.12543251873968506
31.0,0.33487496265800704,0.12544058737036612
31.1,0.33516654364725507,0.12553544133788885
31.200000000000003,0.34122007461453596,0.12750004507670024
31.3,0.3400561353470139,0.1271229914698922
31.400000000000002,0.34373527818960925,0.12831371920495313
31.5,0.34268661901921443,0.12797466083537598
31.6,0.3498646175495419,0.13029021382871092
31.700000000000003,0.34315685414548447,0.12812673263305394
31.8,0.3398473154873197,0.12705531043986676
31.900000000000002,0.34376257358801077,0.1283225409726801
32.0,0.35615328872425106,0.13230878148128786
32.1,0.3512518849786936,0.1307363127969073
32.2,0.34450461766172297,0.12856229813355755
32.300000000000004,0.3383364555611371,0.12656530806917787
32.4,0.35615137252347606,0.13230816783678495
32.5,0.3477760751480474,0.1296177427884622
32.6,0.34385186431566256,0.1283513981404134
32.7,0.3435306842644627,0.12824758952956172
32.800000000000004,0.3485391941171626,0.1298635733632093
32.9,0.34849396901446955,0.12984900846069836
33.0,0.35748066889563634,0.13273365376605517
33.1,0.3486820926128131,0.12990959111377115
33.2,0.3585731696408723,0.13308303349040973
33.300000000000004,0.35605902461483097,0.1322785932969943
33.4,0.35509392588249533,0.13196939858957485
33.5,0.35047012610598116,0.1304849815550694
33.6,0.3525059138773624,0.13113917274991208
33.7,0.3589465413133789,0.13320237264915463
33.800000000000004,0.3647346368747022,0.13504821405468231
33.9,0.3603970898717178,0.13366569422951255
34.0,0.350311067982126,0.13043382741809353
34.1,0.3567591399066885,0.13250275591775282
34.2,0.3677119649176297,0.13599464620141857
34.300000000000004,0.354611795605228,0.13181485300956972
34.4,0.3674805878814094,0.13592117000669401
34.5,0.3689123889230402,0.13637565395953488
34.6,0.3738354914223588,0.13793473167193757
34.7,0.37273038919818674,0.1375852481025226
34.800000000000004,0.36885697438027165,0.13635807305555706
34.9,0.36229375257467117,0.1342707649678597
35.0,0.36962013744023525,0.13660013278494765
35.1,0.37125557338998116,0.13711840575147882
35.2,0.36929293871883917,0.13649636855737798
35.300000000000004,0.3690325016695824,0.13641375867321429
35.4,0.3694259885933061,0.13653856553185975
35.5,0.37368004600709664,0.13788558975791534
35.6,0.3806388251199786,0.14008008207436512
35.7,0.35867211566530127,0.1331146623703398
35.800000000000004,0.38367875026038606,0.14103527134627636
35.9,0.3792359146562113,0.13963855745245743
36.0,0.39512975548817814,0.14461460149627497
36.1,0.3851251640447728,0.14148901931954716
36.2,0.3726471963512563,0.13755892735556455
36.300000000000004,0.38377007796617796,0.141063935376686
36.4,0.36525874977858885,0.13521496855743062
36.5,0.3756995705958677,0.13852360172062472
36.6,0.3886125909506824,0.1425810988116568
36.7,0.3728368045513485,0.13761891371507531
36.800000000000004,0.38953432408958394,0.14286927912964742
36.9,0.4065227862526656,0.14814677230899523
37.0,0.3961452573076496,0.1449306053683374
37.1,0.36509515329474546,0.13516292471784117
37.2,0.4068340282659334,0.14824286441416487
37.300000000000004,0.3897941351692842,0.14295047465600122
37.4,0.4116683344663012,0.14973267303968454
37.5,0.40336567809846013,0.14717085084840423
37.6,0.3977561902473326,0.14543142429633746
37.7,0.40113098167829725,0.14647873625734112
37.800000000000004,0.3836935872720817,0.1410399282059407
37.9,0.38878451601971503,0.14263486577835355
38.0,0.40296600820242584,0.14704714884093922
38.1,0.3878088167553939,0.1423296422377425
38.2,0.3896287652790845,0.14289879541650172
38.300000000000004,0.4195860270961963,0.15216171596092903
38.400000000000006,0.4191713586250315,0.15203483774933346
38.5,0.404418163858474,0.14749643772046608
38.6,0.4181745035892848,0.15172967321873426
38.7,0.40856256831372173,0.14877614310018675
38.800000000000004,0.4130393781183124,0.15015426479349583
38.900000000000006,0.41055779181651675,0.1493908842899302
39.0,0.41175398949459996,0.14975902368927257
39.1,0.3978247152145855,0.14545271505211443
39.2,0.3817628145551063,0.1404335009467848
39.300000000000004,0.4073159235637044,0.14839160167003607
39.400000000000006,0.4064351766891356,0.1481197201094839
39.5,0.41719851308173295,0.15143068800157347
39.6,0.4140297199099254,0.1504585375070202
39.7,0.4236889891796672,0.1534151262142203
39.800000000000004,0.44600166605635977,0.16016879334486522
39.900000000000006,0.41697646666722754,0.1513626374870975
40.0,0.44474675634333793,0.15979172808822456
40.1,0.42689490102171,0.15439198601776452
40.2,0.4351206510420828,0.15688841387780847
40.300000000000004,0.42668952392002324,0.15432947226043794
40.400000000000006,0.40195336046378405,0.14673356596292567
40.5,0.41955911175478167,0.15215348166244583
40.6,0.42424243508822235,0.153583921365041
40.7,0.4389875908718633,0.15805704880866084
