Frequency (Hz),Power,Log Power
0.0,0.0015268801552347222,0.0006626098916327057
0.1,0.0015268877894244078,0.0006626132020645317
0.2,0.0015269035033556714,0.0006626200161337975
0.30000000000000004,0.0015269287737289746,0.0006626309741854727
0.4,0.001526966955350345,0.0006626475309716164
0.5,0.0015270127798557502,0.000662667401958609
0.6000000000000001,0.0015270722866733927,0.0006626932060372442
0.7000000000000001,0.0015271417568934514,0.000662723330567075
0.8,0.0015272182442703688,0.0006627564979602082
0.9,0.0015273093906298676,0.0006627960219576443
1.0,0.0015274093268022005,0.0006628393574969396
1.1,0.0015275193160544213,0.0006628870523700004
1.2000000000000002,0.0015276413896118685,0.0006629399873799212
1.3,0.0015277701122300954,0.000662995805628807
1.4000000000000001,0.0015279125987521759,0.0006630575923388258
1.5,0.0015280657299016325,0.0006631239948896996
1.6,0.001528225511169097,0.0006631932811329426
1.7000000000000002,0.0015283986021369378,0.0006632683388735637
1.8,0.0015285800963988525,0.0006633470405353268
1.9000000000000001,0.0015287720929442526,0.0006634302963044038
2.0,0.0015289762818477396,0.0006635188390477723
2.1,0.001529185883603404,0.0006636097289556441
2.2,0.0015294080058998153,0.0006637060481426113
2.3000000000000003,0.0015296412163829725,0.0006638071754917946
2.4000000000000004,0.0015298812176245651,0.0006639112475013245
2.5,0.0015301334949621014,0.0006640206427813116
2.6,0.0015303928414449818,0.0006641331034333666
2.7,0.0015306622091295471,0.0006642499095574044
2.8000000000000003,0.001530944252495627,0.0006643722122136124
2.9000000000000004,0.0015312310403831676,0.0006644965722046539
3.0,0.0015315289188922946,0.0006646257413902724
3.1,0.0015318367537446686,0.00066475922790904
3.2,0.0015321516216450068,0.0006648957641280267
3.3000000000000003,0.0015324785449721398,0.000665037527898218
3.4000000000000004,0.0015328110517608576,0.0006651817127775706
3.5,0.001533152790212678,0.0006653299007319687
3.6,0.0015335058786967685,0.0006654830103447356
3.7,0.0015338641259103048,0.0006656383568801391
3.8000000000000003,0.001534232291520315,0.0006657980042662014
3.9000000000000004,0.001534608355334882,0.000665961076484371
4.0,0.0015349912872002168,0.0006661271268263927
4.1000000000000005,0.0015353854574476414,0.0006662980503898717
4.2,0.0015357853613722483,0.0006664714601721036
4.3,0.0015361925716384686,0.0006666480381218945
4.4,0.0015366102028849724,0.0006668291348304743
4.5,0.0015370305312737422,0.000667011401020005
4.6000000000000005,0.0015374625541240423,0.0006671987381764898
4.7,0.0015378985643796478,0.0006673878043012794
4.800000000000001,0.0015383463955558447,0.0006675819962189483
4.9,0.0015387947845272797,0.0006677764299250385
5.0,0.001539256467781886,0.0006679766283044257
5.1000000000000005,0.0015397158649348907,0.0006681758352765914
5.2,0.001540190865592453,0.0006683818082523519
5.300000000000001,0.0015406642435506499,0.0006685870774850557
5.4,0.001541143629471729,0.0006687949518308328
5.5,0.0015416434204338885,0.0006690116742333013
5.6000000000000005,0.001542132033413089,0.0006692235494661279
5.7,0.0015426408991594193,0.0006694442067130803
5.800000000000001,0.001543144907728963,0.000669662757652972
5.9,0.0015436631244411456,0.0006698874694903619
6.0,0.0015441716784154542,0.0006701079912078185
6.1000000000000005,0.001544697994966553,0.0006703362151047188
6.2,0.001545220729283111,0.0006705628855373653
6.300000000000001,0.0015457362809984986,0.0006707864413018353
6.4,0.0015463020207786143,0.0006710317596995997
6.5,0.0015468180762569803,0.0006712555336663262
6.6000000000000005,0.0015474101705459469,0.0006715122797333092
6.7,0.0015479377174511522,0.0006717410364024773
6.800000000000001,0.0015484613156664796,0.0006719680807082015
6.9,0.0015490326797594515,0.0006722158372686883
7.0,0.0015496199122235215,0.0006724704745712207
7.1000000000000005,0.0015501283987065764,0.0006726909657113556
7.2,0.0015507382273447516,0.0006729554009346764
7.300000000000001,0.0015512923395860879,0.0006731956761529464
7.4,0.0015518958824249972,0.0006734573854108935
7.5,0.0015524249382697062,0.000673686795363814
7.6000000000000005,0.0015529856183679094,0.0006739299181385281
7.7,0.0015536185371643118,0.000674204364980484
7.800000000000001,0.0015541947171565827,0.0006744542085381994
7.9,0.0015547794776172143,0.0006747077726173395
8.0,0.0015553850713300901,0.000674970370264205
8.1,0.0015559612173162755,0.0006752201986355175
8.200000000000001,0.0015564923896332272,0.0006754505254009566
8.3,0.0015570461123558153,0.0006756906303358903
8.4,0.0015577321094960173,0.0006759880918451669
8.5,0.0015581628372420579,0.0006761748635480142
8.6,0.0015589189398852595,0.0006765027237701302
8.700000000000001,0.0015594072342062359,0.0006767144571723702
8.8,0.0015602032893896785,0.0006770596411261289
8.9,0.0015605978246839762,0.0006772307186778145
9.0,0.00156118497414532,0.0006774853170484908
9.1,0.001561941929075364,0.0006778135458475733
9.200000000000001,0.0015626698132661318,0.0006781291688354114
9.3,0.0015628450779219497,0.0006782051665423589
9.4,0.0015635953711153464,0.0006785305061585735
9.5,0.0015642824093997762,0.0006788284171797502
9.600000000000001,0.0015646983855106703,0.000679008791116022
9.700000000000001,0.0015652354229026386,0.0006792416590612683
9.8,0.0015656660359575822,0.0006794283796330312
9.9,0.001566231378393676,0.0006796735208548785
10.0,0.0015672542024010383,0.0006801170328080385
10.100000000000001,0.0015673448453074007,0.0006801563369207475
10.200000000000001,0.0015678783391596088,0.0006803876677200473
10.3,0.0015679360242961988,0.000680412680838342
10.4,0.0015686725537760694,0.0006807320506581418
10.5,0.0015694389268794667,0.0006810643608548155
10.600000000000001,0.0015683618168018502,0.0006805973106469675
10.700000000000001,0.0015731342062955,0.0006826666826076383
10.8,0.001571362569036538,0.000681898478130416
10.9,0.0015717590201513433,0.0006820703845006176
11.0,0.0015729155616277866,0.000682571875568788
11.100000000000001,0.0015711064795517111,0.0006817874343560403
11.200000000000001,0.001575452573771852,0.0006836719542172301
11.3,0.0015751907271187087,0.0006835584145221591
11.4,0.0015744536781057796,0.000683238821505129
11.5,0.0015757115412062493,0.0006837842454209707
11.600000000000001,0.0015744094889080878,0.0006832196605480527
11.700000000000001,0.001578905666534233,0.0006851692518428881
11.8,0.0015699710215053724,0.0006812950844467312
11.9,0.0015737865992904395,0.0006829495681761411
12.0,0.00157056604390951,0.000681553094248827
12.100000000000001,0.0015816549412714658,0.0006863613628209928
12.200000000000001,0.0015801095762712344,0.0006856912786530574
12.3,0.0015803989554719275,0.0006858167561566961
12.4,0.001578875476413544,0.0006851561611088326
12.5,0.0015813774875995529,0.0006862410564886585
12.600000000000001,0.001581673796176746,0.0006863695384711403
12.700000000000001,0.0015801049770305534,0.0006856892843793382
12.8,0.0015783421895616536,0.0006849249226069705
12.9,0.0015811892029117575,0.0006861594145867784
13.0,0.0015790676292729495,0.0006852394804764414
13.100000000000001,0.0015808581798490253,0.0006860158800287851
13.200000000000001,0.0015825628346339824,0.0006867550330692799
13.3,0.0015833810154365442,0.0006871098028864158
13.4,0.001582744496848404,0.0006868338033005612
13.5,0.0015826273375472055,0.0006867830020649685
13.600000000000001,0.001581454937136482,0.0006862746392868246
13.700000000000001,0.0015838755320931814,0.0006873242291700232
13.8,0.0015849659006240706,0.0006877970211049501
13.9,0.0015850561851345445,0.0006878361691195447
14.0,0.0015856179693205456,0.0006880797627136143
14.100000000000001,0.0015840518788025817,0.0006874006944546068
14.200000000000001,0.001586173541007403,0.0006883206623897533
14.3,0.0015844969438869592,0.0006875936780258908
14.4,0.0015870418130483315,0.0006886971508065088
14.5,0.0015839653235902122,0.000687363163452941
14.600000000000001,0.0015858124821431414,0.0006881641048165356
14.700000000000001,0.001589671172633422,0.0006898372562712748
14.8,0.0015871614714748638,0.000688749035454641
14.9,0.0015869700913047904,0.00068866605180331
15.0,0.001584271507538147,0.0006874959271384976
15.100000000000001,0.001588342215234224,0.0006892610130605168
15.200000000000001,0.0015875424222730453,0.0006889142180812294
15.3,0.0015837976075046888,0.0006872904404669907
15.4,0.0015869672647664949,0.0006886648261984006
15.5,0.0015886130365864294,0.0006893784427449468
15.600000000000001,0.0015940892575554435,0.0006917529566080751
15.700000000000001,0.0015991640374031647,0.0006939533922186693
15.8,0.0015901798743164022,0.0006900578319063045
15.9,0.0015853687569243624,0.0006879717024738832
16.0,0.00158984633554145,0.0006899132078111054
16.1,0.0015829710269792006,0.0006869320286096924
16.2,0.0015939909960640888,0.0006917103501010636
16.3,0.0015817858077551003,0.0006864181076582427
16.400000000000002,0.0015985967737165306,0.0006937074260003225
16.5,0.0016065233926503574,0.0006971444048982924
16.6,0.0015897205194794657,0.0006898586533194649
16.7,0.001582893445496075,0.000686898388649402
16.8,0.0016067404412538069,0.0006972385167060782
16.900000000000002,0.001609137438277871,0.0006982778481053032
17.0,0.001593592053558157,0.0006915373672707151
17.1,0.0016384776867030006,0.0007109994985827267
17.2,0.0016115416074420916,0.000699320286826602
17.3,0.0016008614239757734,0.0006946893802505985
17.400000000000002,0.0016155015305594175,0.0007010372891649512
17.5,0.0016360888141186917,0.0007099637202638381
17.6,0.001485167619486188,0.0006445216089142367
17.7,0.0016036169225493553,0.0006958841637470571
17.8,0.001631783681294125,0.0007080970748138794
17.900000000000002,0.0016785083084029514,0.0007283557914063446
18.0,0.001528115125560927,0.0006631454144209041
18.1,0.0014668425184548844,0.0006365748481150316
18.2,0.0015538544368842,0.0006743066559938741
18.3,0.0015371310810733609,0.000667055002224552
18.400000000000002,0.001633722436715657,0.0007089376930731791
18.5,0.0016558050743720014,0.0007185123127661938
18.6,0.0016592037038954588,0.0007199858763760754
18.7,0.001387334734344815,0.0006020942630402463
18.8,0.0018060559764610962,0.0007836526970870995
18.900000000000002,0.001869008012637937,0.0008109422735624538
19.0,0.0015882318261161638,0.0006892131476996089
19.1,0.001795788884381436,0.0007792017714235483
19.200000000000003,0.001958049677249753,0.000849538721771316
19.3,0.001412118549595007,0.0006128426923815955
19.400000000000002,0.0018639915847882067,0.0008087677254220903
19.5,0.0014060219762569316,0.0006101987097795637
19.6,0.0011570025163605028,0.0005021893472234719
19.700000000000003,0.0019269572895011106,0.0008360616486033602
19.8,0.0010904237543983026,0.00047330701373817527
19.900000000000002,0.002078468806619807,0.0009017307481955553
20.0,0.0019278594403186148,0.0008364526940210816
20.1,0.001721992021049443,0.0007472084735883217
20.200000000000003,0.001548038135540768,0.0006717845800196894
20.3,0.001659586064922218,0.0007201516585620158
20.400000000000002,0.0016579989010271118,0.0007194635035468204
20.5,0.0016938829283981755,0.0007350216640664448
20.6,0.0015137168905886814,0.0006569018363810692
20.700000000000003,0.0013713801515302525,0.0005951748201477713
20.8,0.001600543879000492,0.0006945516926170716
20.900000000000002,0.0016023952632554814,0.0006953544529866022
21.0,0.001707742533829375,0.0007410305941619133
21.1,0.00175504857039175,0.0007615398351967132
21.200000000000003,0.0016084996341414158,0.0006980012982069348
21.3,0.0022343523630671044,0.0009692844432135658
21.400000000000002,0.0018800799946511678,0.0008157417773734878
21.5,0.001550793333713475,0.0006729792962704955
21.6,0.0016984245974809196,0.0007369907460219765
21.700000000000003,0.0012773514166320682,0.0005543926698954933
21.8,0.0021968430259155128,0.000953030357581611
21.900000000000002,0.0017848585307731852,0.0007744632626308308
22.0,0.0030886115321777283,0.001339299719936374
22.1,0.004347085043180201,0.0018838234364190467
22.200000000000003,0.004628193127350902,0.0020053617070957042
22.3,0.0024867687435413434,0.0010786493225547363
22.400000000000002,0.004191010555678691,0.0018163292833604104
22.5,0.0010818976191606328,0.0004696081777827007
22.6,0.0032145649060942023,0.0013938287223157295
22.700000000000003,0.0041939012775800135,0.0018175794665928188
22.8,0.00232133194423321,0.0010069733460045134
22.900000000000002,0.0017444905974377978,0.0007569625749534568
23.0,0.00414371628417651,0.0017958748831368486
23.1,0.0019372717733332008,0.0008405325337532175
23.200000000000003,0.004199791282222566,0.001820126772456295
23.3,0.000613694817142638,0.0002664425238194891
23.400000000000002,0.0010243961776557424,0.0004446618911331598
23.5,0.0018753005013757223,0.0008136699600487844
23.6,0.001772102722671043,0.0007689333204548652
23.700000000000003,0.0008956036847481403,0.0003887816670868759
23.8,0.001960384853324304,0.0008505508927918092
23.900000000000002,0.0014063370576664317,0.0006103353557483538
24.0,0.002221295838060546,0.0009636266709716894
24.1,8.772012682014185e-05,3.809469621846785e-05
24.200000000000003,0.000950944357056682,0.00041279364606511216
24.3,0.0021101342334822323,0.0009154541274561022
24.400000000000002,0.0017153904648018613,0.000744346373204943
24.5,0.002212491760198453,0.0009598115662199845
24.6,0.0027000338384140844,0.0011710295976650393
24.700000000000003,0.002214339536392005,0.0009606122729279041
24.8,0.010739873013520872,0.004639398666232079
24.900000000000002,0.0014806671036264054,0.0006425699538537935
25.0,0.0005885229243689775,0.0002555170770711768
25.1,0.0001039836707452744,4.515718664838665e-05
25.200000000000003,0.0014607977605875652,0.0006339534803397293
25.3,0.001136739306629125,0.0004933992281829797
25.400000000000002,0.0019225997229350188,0.0008341728170715401
25.5,0.0020800392095705784,0.0009024113503866146
25.6,0.0012644832631164228,0.0005488111954239762
25.700000000000003,0.0008080936011915613,0.00035080886774079646
25.8,0.0017721951935170854,0.0007689734089901072
25.900000000000002,0.0017201237704018318,0.0007463984966584824
26.0,0.006200155825248451,0.002684380246775986
26.1,0.0014940844873535027,0.0006483883953590133
26.200000000000003,0.0010376548082213484,0.00045041411054065866
26.3,0.00020337947406468218,8.831760262933153e-05
26.400000000000002,0.0004929873064743621,0.00021404890948653388
26.5,0.0018231315119648596,0.0007910550756223338
26.6,0.00104437518500696,0.0004533296979247354
26.700000000000003,0.0020371536116798985,0.0008838246344135178
26.8,0.0012072498869213648,0.00052398573690941
26.900000000000002,0.0024227413817133345,0.001050910684175561
27.0,0.0009770960118800737,0.0004241402271149668
27.1,0.0018939976774909337,0.0008217747657484108
27.200000000000003,0.0013334415129987968,0.0005787205317385689
27.3,0.0011890558390674146,0.0005160936182873002
27.400000000000002,0.0004080789293012795,0.00017719027582594575
27.5,0.00148335826206103,0.0006437369795649383
27.6,0.0013602821326271738,0.0005903615858433115
27.700000000000003,0.0017156195550391815,0.0007444456954430306
27.8,0.0010569053387782864,0.0004587657632160853
27.900000000000002,0.0012522270688110767,0.0005434950874199853
28.0,0.0025658151619362,0.0011128922382931505
28.1,0.002228877474836021,0.0009669120237923765
28.200000000000003,0.003407901197312089,0.0014775164972766369
28.3,0.002221914392729383,0.0009638947103734069
28.400000000000002,0.0010776662553447496,0.00046777250195608497
28.5,0.0013812907723275013,0.0005994730322904441
28.6,0.001399468956657364,0.0006073567560654196
28.700000000000003,0.0026512171717844595,0.0011498853627729204
28.8,0.003870126094237583,0.001677530369746613
28.900000000000002,0.018997911176502753,0.008173293755741143
29.0,0.005023364345849343,0.002176158163003305
29.1,0.0005756471232182331,0.00024992844074281476
29.200000000000003,0.0010650073825252376,0.00046228070690561106
29.3,0.0038448439793605307,0.001666592678743508
29.400000000000002,0.003614616838175308,0.001566977837805385
29.5,0.004622532340913739,0.0020029145776441788
29.6,0.005542778331751414,0.0024005513109140596
29.700000000000003,0.003375591997999899,0.0014635322214194889
29.8,0.0014975851791694862,0.0006499064557299582
29.900000000000002,0.001963027397516796,0.0008516962882235969
30.0,0.0011428509388715824,0.0004960504544865226
30.1,0.0030274628928951726,0.001312824166539366
30.200000000000003,0.0026593187067493877,0.0011533944970114987
30.3,0.0017987286929527452,0.0007804762235437155
30.400000000000002,0.002323436018411312,0.0010078850165604388
30.5,0.001966357663289936,0.0008531397682776683
30.6,0.00219189457676227,0.0009508859789778429
30.700000000000003,0.0012311527133511018,0.0005343539615772277
30.8,0.0014846849268522425,0.0006443122889914511
30.900000000000002,0.0021900143162605504,0.0009500711774105129
31.0,0.0030935864596757946,0.001341453645499465
31.1,0.0008443304992694746,0.00036653336085337447
31.200000000000003,0.001707863756195859,0.0007410831506106414
31.3,0.002331660335102934,0.0010114484977429485
31.400000000000002,0.0011008110944612224,0.000477813241107995
31.5,0.0013412278568117597,0.0005820975816447235
31.6,0.00042359490286561534,0.00018392597657343747
31.700000000000003,0.0020379902515458353,0.000884187243648286
31.8,0.002439370775824512,0.0010581152236362036
31.900000000000002,0.0013793781179147738,0.00059864352203483
32.0,0.0030744794497888153,0.0013331810893753506
32.1,0.0007623021770305958,0.00033093750785557254
32.2,0.0013699116127524745,0.0005945379148318065
32.300000000000004,0.004764155320609547,0.002064133335658343
32.4,0.005172218000284824,0.0022404766018839957
32.5,0.0038207244879751947,0.001656157711705122
32.6,0.002575278286397779,0.0011169914837264952
32.7,0.001507360102305428,0.0006541452821882159
32.800000000000004,0.0015150000626903643,0.0006574582683067598
32.9,0.0025968870066866295,0.0011263518250929408
33.0,0.0019704639132658093,0.0008549195865699577
33.1,0.0031297252855577514,0.001357099852552139
33.2,0.0022572592542516473,0.0009792104876846812
33.300000000000004,0.0012541672277424907,0.000544336633115195
33.4,0.008881203382384094,0.003840030703785534
33.5,0.0030401297089851878,0.00131830865604664
33.6,0.0043000379076563065,0.0018634790851214662
33.7,0.004831812979491537,0.0020933763759366604
33.800000000000004,0.006461677657222162,0.0027972432099157983
33.9,0.00586376097968967,0.002539161772046719
34.0,0.002934159149255412,0.0012724232928758895
34.1,0.0032494970009926023,0.0014089506637900639
34.2,0.0011387960229052602,0.000494291433590102
34.300000000000004,0.0019853572837146144,0.0008613749270864583
34.4,0.0033344552853459305,0.0014457265126815643
34.5,0.0021696565416932955,0.0009412491388440602
34.6,0.005340588385902023,0.0023132165807870524
34.7,0.00662540078568889,0.0028678850139105235
34.800000000000004,0.0017160778383686882,0.0007446443844439207
34.9,0.00548926816471746,0.0023774396252354826
35.0,0.002638645584596265,0.0011444399944538035
35.1,0.007697271918761709,0.0033300828222856452
35.2,0.004259727197817284,0.0018460469736641147
35.300000000000004,0.009906360813607653,0.004281107577477629
35.4,0.002579484657739093,0.0011188135913225736
35.5,0.0026256693871810773,0.001138819298078236
35.6,0.0017471118769248758,0.000758098998201087
35.7,0.004334618389168665,0.0018784326380303982
35.800000000000004,0.00397211700000084,0.0017216514532309146
35.9,0.004310293612002527,0.0018679139879353513
36.0,0.005749302826721905,0.002489740195710056
36.1,0.009913470439087543,0.0042841649502853955
36.2,0.005042643773084867,0.0021844891818147247
36.300000000000004,0.0032364992895406418,0.0014033240764413368
36.4,0.002325358018023956,0.0010087177946795202
36.5,0.0015039902185351587,0.000652683960537848
36.6,0.008068007230026127,0.0034898318797871937
36.7,0.002217355978994996,0.0009619194009087744
36.800000000000004,0.001741553225534726,0.0007556891102215972
36.9,0.006280080552686029,0.0027188758581957787
37.0,0.007432720820845905,0.003216052379504991
37.1,0.009039985167124905,0.003908376339356738
37.2,0.0059519828249431075,0.0025772510063311284
37.300000000000004,0.006093518433805781,0.002638351149429133
37.4,0.010680374642651782,0.00461383266709055
37.5,0.006436958057982462,0.0027865764179027773
