Frequency (Hz),Power,Log Power
0.0,0.006388272255348992,0.002765567166710564
0.5,0.006388362490108551,0.0027656061064096063
1.0,0.0063886312351969605,0.0027657220800214838
1.5,0.006389073951435055,0.0027659131286590652
2.0,0.006389683937393992,0.0027661763603083734
2.5,0.006390450562711984,0.0027665071874459646
3.0,0.006391360323798295,0.0027668997826269873
3.5,0.006392397865747888,0.002767347519490486
4.0,0.00639354405507611,0.002767842141089481
4.5,0.006394776204623641,0.002768373856962406
5.0,0.006396069850581027,0.0027689321099988503
5.5,0.00639739853539441,0.0027695054827683446
6.0,0.006398730548892759,0.00277008029121895
6.5,0.006400024483604564,0.0027706386666689364
7.0,0.006401268347211797,0.0027711754341111896
7.5,0.006402395926950521,0.0027716620207237953
8.0,0.006403388142388397,0.002772090192873251
8.5,0.0064041748272652054,0.0027724296718252134
9.0,0.0064046324670603135,0.002772627157485075
9.5,0.006404985625899314,0.0027727795563345847
10.0,0.006404952061723874,0.0027727650723677584
10.5,0.006404447302392821,0.0027725472532416076
11.0,0.006402159884225784,0.002771560160806463
11.5,0.0064014634324022915,0.0027712596196305893
12.0,0.00640262422430275,0.00277176053824464
12.5,0.006397487698334691,0.002769543959587974
13.0,0.006393968384608018,0.002768025254282505
13.5,0.006388671980634667,0.0027657396632073863
14.0,0.006383698713441987,0.0027635935064632996
14.5,0.006378894575194609,0.002761520325316031
15.0,0.0063717843370349305,0.0027584519500521805
15.5,0.006363407517971762,0.00275483696253685
16.0,0.006355719394568016,0.0027515191527880565
16.5,0.006354090784633407,0.002750816322897496
17.0,0.006325224600957433,0.002738358874570743
17.5,0.006325722375891375,0.002738573696626563
18.0,0.006266095111957448,0.0027128399224155583
18.5,0.006279304771489904,0.0027185410432381493
19.0,0.006226221582608739,0.002695630561039332
19.5,0.0063242861482290915,0.0027379538712760296
20.0,0.005785332911228539,0.0025052981350140962
20.5,0.0051451575231924295,0.002228784700871035
21.0,0.006493798582768454,0.0028111033681599475
21.5,0.00598362793215401,0.002590912771020389
22.0,0.006207184651597942,0.0026874140068268598
22.5,0.006618419667193285,0.00286487309731163
23.0,0.006321773920149057,0.0027368696798584944
23.5,0.006375403289562916,0.0027600136872865323
24.0,0.006459025733899831,0.0027960988869791285
24.5,0.006634067976860949,0.0028716243364946895
25.0,0.005747851422317384,0.002489113461615477
25.5,0.005813381122213519,0.0025174090825642315
26.0,0.005715840402518358,0.002475290483535859
26.5,0.006002813121247193,0.0025991951546267293
27.0,0.0060426104482854985,0.0026163754422355657
27.5,0.0060965964182660105,0.0026396798028765207
28.0,0.00626568477139457,0.0027126628234559955
28.5,0.0060062071353123156,0.0026006603583759655
29.0,0.007090151828799025,0.0030683490931625707
29.5,0.008376130711842953,0.0036225569341751885
30.0,0.00490474738997228,0.0021248979321955345
30.5,0.005720618425991901,0.0024773537545080626
31.0,0.006550494037762508,0.0028355663403356727
31.5,0.0041674482140449075,0.0018061388764556384
32.0,0.006448551475855757,0.0027915791439743465
32.5,0.005714722005671101,0.0024748075301707652
33.0,0.005585589288770444,0.0024190409933236828
33.5,0.00909557344553281,0.003932301077686759
34.0,0.006842540699312163,0.002961556896844572
34.5,0.008739713932539661,0.0037791192740036284
35.0,0.009403347019591132,0.0040647404508960105
35.5,0.007521197722049447,0.0032541922393198135
36.0,0.009099102088039004,0.003933819731945069
36.5,0.005717190409068969,0.0024758734513865965
37.0,0.007136681056494723,0.0030884137517294434
37.5,0.006952062258219027,0.0030087956854079486
38.0,0.00649315650101456,0.002810826314638082
38.5,0.00961289850255252,0.0041548903476622285
39.0,0.004169677747427061,0.0018071031309452468
39.5,0.002850256193770192,0.0012360897863184796
40.0,0.004010719184347735,0.0017383495199187313
40.5,0.0036025655250408154,0.001561762837814383
41.0,0.004389498762988831,0.0019021633667226584
41.5,0.020243328201611167,0.00870376342110009
42.0,0.005872795435510682,0.00254306249582447
42.5,0.006436574130399771,0.0027864107466592405
43.0,0.014803144061356011,0.006381804082194578
43.5,0.003016777085061004,0.0013081973619209976
44.0,0.0074999549909588745,0.003245035411480933
44.5,0.012334460043665658,0.005324020560941659
45.0,0.022265807451469638,0.009563834839841927
45.5,0.022561236929714228,0.009689325544240025
46.0,0.01945117739365813,0.008366431785326253
46.5,0.018282764166546006,0.007868392799589329
47.0,0.013876942982488642,0.0059852466868693995
47.5,0.01722659281728932,0.007417705183227378
48.0,0.024732575063184263,0.010610542145165826
48.5,0.01183197497366011,0.0051083994599791845
49.0,0.007624346538958304,0.0032986525138295393
49.5,0.010082192526405557,0.004356714681961833
50.0,0.04973096402331112,0.021078007820963113
50.5,0.017853304203954735,0.007685190804776918
51.0,0.024626033937771855,0.010565386336220782
51.5,0.04339464832463641,0.018448604852294475
52.0,0.027241816710227778,0.011672690238851462
52.5,0.02530550760463408,0.01085329026758978
53.0,0.0555326672058861,0.023471678636301226
53.5,0.02821894190499456,0.012085600201159152
54.0,0.024184781724291775,0.010378318401065375
54.5,0.059852248748137854,0.02524532561770775
55.0,0.03658367140486995,0.015604363412816784
55.5,0.011861793715696218,0.005121197952838959
56.0,0.024753016801792604,0.010619205523248314
56.5,0.04770677969976343,0.020239754235012668
57.0,0.017093956324625244,0.00736107369811667
57.5,0.014191978131778056,0.006120171123231559
58.0,0.05672135400353681,0.023960483643884964
58.5,0.01903789312972016,0.00819033363465154
59.0,0.02561474602756759,0.010984256395065874
59.5,0.07095289943858217,0.029770370959092827
60.0,0.06687856515698286,0.028114989730436458
60.5,0.006873401982655192,0.0029748684913721937
61.0,0.02010497857475188,0.00864486712441294
61.5,0.036140062515944454,0.015418466090976682
62.0,0.022577290053538267,0.00969614345217373
62.5,0.01774660471983998,0.007639662214396979
63.0,0.05506428892081741,0.023278923589064672
63.5,0.008289391726684423,0.003585197974819476
64.0,0.042692723512815674,0.018156342804113074
64.5,0.06560027648302373,0.02759432450925508
65.0,0.012929849522705138,0.005579369328564489
65.5,0.02308614958157013,0.009912205278732723
66.0,0.05765993043007157,0.024346051367798355
66.5,0.028068168381471036,0.01202191249035926
67.0,0.02843981321266556,0.012178880810071405
67.5,0.007694517483216503,0.0033288957219269636
68.0,0.08479932609970472,0.03534940673015025
68.5,0.04012798680234327,0.017086782127718664
69.0,0.045022187561505236,0.019125511340120128
69.5,0.07707312170598239,0.032245188233388546
70.0,0.022804089732489787,0.009792455905629216
70.5,0.034231599666699704,0.014617802969238293
71.0,0.05130127391275948,0.021727190669790605
71.5,0.010999644305684965,0.004751002795644566
72.0,0.020163093992227665,0.008669608191990755
72.5,0.04325570534011523,0.01839076845295724
73.0,0.061527106606939753,0.025931088562790822
73.5,0.017246997726012767,0.007426416762776874
74.0,0.03156489164107588,0.013496552905594011
74.5,0.06554287670554326,0.02757093011025288
75.0,0.004345364844881298,0.0018830795966848551
75.5,0.056060418741254094,0.023688765522902645
76.0,0.045682833381007024,0.019399978412784725
76.5,0.027777318109499797,0.011899029063710815
77.0,0.04379944312138007,0.01861706081856386
77.5,0.05825481022332412,0.024590251205767712
78.0,0.008666433589917337,0.0037475686132842786
78.5,0.014833937791061675,0.006394982346435922
79.0,0.18097081675319673,0.07223916579332343
79.5,0.150931934005403,0.061049640258853954
80.0,0.161221528393547,0.06491507880952624
80.5,0.21346056301224134,0.08402566649862665
81.0,0.1470472440625548,0.05958130579414018
81.5,0.17739127481117742,0.07092081310057717
82.0,0.09882389206648026,0.04092809384993175
82.5,0.04060118993548611,0.01728431817939121
83.0,0.07276871285913816,0.030506098893903714
83.5,0.006040463106718641,0.0026154484640152635
84.0,0.038312484139900634,0.016328075780597067
84.5,0.08520735161807812,0.03551272717981817
85.0,0.03745711382475475,0.015970152984885553
85.5,0.06705827466869176,0.028188137958639566
86.0,0.1310959487700336,0.05349944688294932
86.5,0.0303083288038902,0.012967210588613913
87.0,0.100828733360483,0.04171975680808352
87.5,0.09837020830803382,0.04074874478323886
88.0,0.045127368441744385,0.019169220629531403
88.5,0.052877098087161636,0.022377679126894715
89.0,0.11207092400281228,0.0461324859158373
89.5,0.02614288716405125,0.0112078391249131
90.0,0.045116482816557966,0.019164697169794683
90.5,0.02742941467741441,0.011751995152403761
91.0,0.08048363954525005,0.03361819527385316
91.5,0.05608785781622924,0.023700049426578464
92.0,0.0691208260397895,0.029026789509129618
92.5,0.07286443354880692,0.030544848264852147
93.0,0.07581214621970062,0.03173644327954419
93.5,0.04715090777269189,0.020009273551115345
94.0,0.06645746966873713,0.027943540463852015
94.5,0.08470916481007348,0.03531330956735537
95.0,0.03682466641320779,0.015705320663590427
95.5,0.02429565233577991,0.010425329340512022
96.0,0.0866382494222017,0.03608498803493195
96.5,0.05724641622422817,0.024176221682092387
97.0,0.03766615215430793,0.01605765062401542
97.5,0.11464670183937625,0.0471372353164774
98.0,0.08738627212882591,0.0363838458844406
98.5,0.041410085046389516,0.01762177908078087
99.0,0.09689166156040326,0.0401637350405377
99.5,0.050433012221737676,0.02136836197750726
100.0,0.03197228461511351,0.013668033724961125
100.5,0.02593592609751153,0.011120238152776112
101.0,0.04680803742250656,0.019867048506287018
101.5,0.04401243731303711,0.018705672444258498
102.0,0.03690371958366029,0.015738432382514666
102.5,0.0453051255859079,0.019243079935905273
103.0,0.0350842427040753,0.014975697283426084
103.5,0.030911651472073733,0.013221448094158572
104.0,0.03370328784903649,0.014395897614758846
104.5,0.024701696142683544,0.010597455075265648
105.0,0.03708945108395257,0.015816216790919622
105.5,0.006988444730382518,0.0030244870197303486
106.0,0.01951695601614161,0.008394453108772787
106.5,0.01626253691141721,0.007005916218719557
107.0,0.016208499147042085,0.006982822848657591
107.5,0.027231004916223902,0.011668119234138264
108.0,0.05296633980259705,0.022414488306432997
108.5,0.03491146451771431,0.014903197989980802
109.0,0.012881249736834861,0.005558531631666846
109.5,0.05496998057546989,0.023240101855596898
110.0,0.048788807635116255,0.020688044044113275
110.5,0.07403811048378814,0.031019691865550543
111.0,0.11562309075783124,0.047517494555045316
111.5,0.08590070086467658,0.035790113431250305
112.0,0.04440970300785015,0.01887089794906112
112.5,0.06871273960240733,0.0288609864336278
113.0,0.11146061629260835,0.04589407843417366
113.5,0.01673215032665357,0.007206556702211957
114.0,0.10433994592059079,0.04310278164665525
114.5,0.12020175469183582,0.04929624861515805
115.0,0.06017181605282344,0.02537625462023853
115.5,0.06398307830445102,0.026934720950156574
116.0,0.12733295479215945,0.0520522027126366
116.5,0.08416696069341742,0.0350961682949097
117.0,0.07186573585954883,0.0301403881298948
117.5,0.055591065620579014,0.023495705754053856
118.0,0.09090424712759984,0.037786632559843394
118.5,0.062110156214048425,0.02616956171245589
119.0,0.059720407878238,0.02519129797002919
119.5,0.2820826685729799,0.10791602935405606
120.0,0.5606537505361732,0.1933065603901446
120.5,0.12468423383337698,0.05103060711137607
121.0,0.15446575614347519,0.06238105536623835
121.5,0.056319443266610605,0.023795273755277856
122.0,0.06337981822332256,0.026688413625875623
122.5,0.12987526856650247,0.053030502631022866
123.0,0.02912052046946286,0.012466238037331927
123.5,0.03682422255145707,0.015705134743293044
124.0,0.08236418674629536,0.03437341389649833
124.5,0.03081687207049574,0.013181518325847777
125.0,0.026936820468907663,0.011543725616999645
125.5,0.027278861824478084,0.011688351788399498
126.0,0.06649519934709194,0.027958904884594363
126.5,0.013825906422097509,0.005963384611206484
127.0,0.03384680018280258,0.014456187921727027
127.5,0.09018599638134636,0.037500599143367536
128.0,0.020383430688061976,0.008763397782550069
128.5,0.03940535066672612,0.016784948160356618
129.0,0.06962859742010645,0.029233005637362756
129.5,0.01981732865220533,0.008522387190282895
130.0,0.012236116466413153,0.00528182882560721
130.5,0.023371937225987127,0.010033503631797792
131.0,0.0639278795325233,0.026912189441520715
131.5,0.011341518340270569,0.0048978365850004335
132.0,0.020455249168091466,0.008793964009950804
132.5,0.0616828413793002,0.025994798468127342
133.0,0.021102985289114206,0.009069545894200715
133.5,0.03230530311821725,0.013808158386860956
134.0,0.06844883428235955,0.02875372956898565
134.5,0.005048831620947426,0.0021871630384172392
135.0,0.045747918010408006,0.01942700861246588
135.5,0.05712115969960489,0.024124765901035846
136.0,0.03324968094714029,0.014205279849784716
136.5,0.03319137893692708,0.014180773715235118
137.0,0.02306424870163838,0.009902908375326643
137.5,0.05286871088588088,0.02237421953056616
138.0,0.01944646641326256,0.008364424864776449
138.5,0.01795642556970967,0.00772918807966664
139.0,0.05763871619681064,0.024337340328855418
139.5,0.011050700280074184,0.004772934324708106
140.0,0.03340181015328618,0.014269217940139425
140.5,0.036804094842901966,0.015696703769732614
141.0,0.03971260936836301,0.01691331101631206
141.5,0.0038825920882522933,0.0016829233769263528
142.0,0.019010723335052104,0.008178754232860854
142.5,0.06638575645272668,0.027914335641272228
143.0,0.012611904597226987,0.005443028789015073
143.5,0.020019245116678637,0.008608365849299252
144.0,0.0745918837516205,0.031243556077085812
144.5,0.027353746646973483,0.011720009093037189
145.0,0.049010995831725725,0.020780040532942124
145.5,0.08302936611180861,0.03464023258783848
146.0,0.01773754815834427,0.007635797566591067
146.5,0.051347752862492796,0.021746390784636332
147.0,0.06178124602096484,0.026035050237067307
147.5,0.020965636751747018,0.009011125024968212
148.0,0.07680955393962113,0.03213890015335164
148.5,0.03496325859917946,0.014924932526403797
149.0,0.03975187975772073,0.016929714194622098
149.5,0.02256009243121182,0.009688839461212174
150.0,0.021191878793986617,0.009107352343549875
150.5,0.05317115204833845,0.022498954613857144
151.0,0.02488865251008703,0.010676684682292811
151.5,0.0295222692940652,0.012635745152134344
152.0,0.043498298199219604,0.018491745128074746
152.5,0.013520402905593847,0.0058324957819882225
153.0,0.0288870982325082,0.012367721405054766
153.5,0.020672070781192917,0.008886231091539706
154.0,0.04033357722374288,0.01717261575942868
154.5,0.008920262920713106,0.003856844391601015
155.0,0.03203002690889325,0.013692333270971815
155.5,0.05965524453778805,0.025164591917087146
156.0,0.009220238544159534,0.003985951120129769
156.5,0.0328317966482096,0.014029599607216947
157.0,0.05958931712209378,0.02513757104996367
157.5,0.011234509437887407,0.00485188194574375
158.0,0.035729990420017795,0.015246551785331344
158.5,0.04550017509864272,0.019324109888619392
159.0,0.01464415100440845,0.006313756187969928
159.5,0.030443158213052643,0.013024040020838061
160.0,0.02460341298657573,0.010555798191471975
160.5,0.048514620712946974,0.02057449073906738
161.0,0.0406976358028433,0.017324567957565852
161.5,0.031349877294314814,0.01340602125002333
162.0,0.04758018010229405,0.020187273111697518
162.5,0.03170923144701274,0.013557316505193474
163.0,0.05193393193540139,0.021988464250308995
163.5,0.046359196661045744,0.019680795763773844
164.0,0.04518903908010522,0.01919484662361249
164.5,0.018412170705534157,0.007923580785691895
165.0,0.005108924500445237,0.0022131291655989294
165.5,0.04645654349850095,0.019721197977458263
166.0,0.02758814355168983,0.011819084675875327
166.5,0.013059940823722128,0.005635142496348669
167.0,0.0555488479414428,0.023478336080947633
167.5,0.04136577621995838,0.017603300780566836
168.0,0.031004427839291575,0.013260530445535724
168.5,0.028742538262971188,0.012306698180987787
169.0,0.03531363699149732,0.015071934508736376
169.5,0.04069744686662803,0.01732448911241402
170.0,0.0314065772002444,0.013429896541963063
170.5,0.045920222751109574,0.019498560114162903
171.0,0.036391063889888144,0.01552365969776786
171.5,0.028154414965193178,0.012058344747955162
172.0,0.052270585718225286,0.022127430667511484
172.5,0.055749756392171286,0.02356098988614927
173.0,0.04918079099982445,0.020850330680089697
173.5,0.03773701842987327,0.016087309278178835
174.0,0.05103572181787922,0.02161747675588253
174.5,0.06146393057646585,0.025905241066545275
175.0,0.03944604934003033,0.016801952944093514
175.5,0.04596881983399527,0.019518738474016667
176.0,0.03699661559356252,0.015777339000961125
176.5,0.018203217067514522,0.00783446488012743
177.0,0.029551018557849498,0.012647872594799799
177.5,0.047597832132795656,0.020194591038285727
178.0,0.007469258864025609,0.0032318032901638935
178.5,0.0070932201067075585,0.003069672245943134
179.0,0.057518186488956964,0.02428784481671023
179.5,0.01765117825649942,0.00759893977003416
180.0,0.016042387942485657,0.006911826516324635
180.5,0.06959278716774786,0.029218465585446315
181.0,0.024555538763376447,0.010535505465085976
181.5,0.011972112192790152,0.005168544432964141
182.0,0.025508519816952128,0.010939272792263277
182.5,0.0346130088533495,0.014777934770634705
183.0,0.016126583083715087,0.0069478131746993415
183.5,0.04318261431664009,0.018360340495527715
184.0,0.0587154851531496,0.024779265273248367
184.5,0.033187181576970246,0.014179009381920115
185.0,0.035957533216847984,0.015341952834311987
185.5,0.06455898028519139,0.02716972787186279
186.0,0.043458708286420226,0.01847526785459337
186.5,0.04791761899911412,0.02032714236109306
187.0,0.058798075222120647,0.024813143130659597
187.5,0.03655378542272933,0.015591841988259936
188.0,0.010441132516376217,0.004511016942852763
188.5,0.022722042659215798,0.009757616369107044
189.0,0.061470224991882774,0.025907816398309753
189.5,0.023395567239725024,0.010043531526565279
190.0,0.027222998206818432,0.011664734130643383
190.5,0.07409828938764834,0.03104402492548271
191.0,0.016698693912630232,0.0071922656472325226
191.5,0.05803788379905953,0.02450121820042484
192.0,0.08088129050196471,0.033777999493651935
192.5,0.010303149608975505,0.0044517068996134754
193.0,0.03431183420797395,0.01465149374699069
193.5,0.04966546266370651,0.021050907766222517
194.0,0.03057635461632444,0.013080173854283847
194.5,0.027379565266087695,0.01173092329172881
195.0,0.019307236852361475,0.008305107616190422
195.5,0.04525596241737095,0.019222653560483954
196.0,0.03216317914449908,0.013748362213502311
196.5,0.02607844851948327,0.011180565899282185
197.0,0.061618241071625446,0.02596837211023309
197.5,0.0132786150934064,0.0057288771082173425
198.0,0.034183629081937596,0.014597658696492578
198.5,0.0319419718823955,0.013655276748734619
199.0,0.0456432276537747,0.019383528994292437
199.5,0.027846944182591902,0.011928449050531122
200.0,0.014001619431663129,0.006038648596600741
200.5,0.07575725324500429,0.03171428297551968
201.0,0.013503887753520261,0.005825418965546992
201.5,0.03147717963855445,0.013459624101043725
202.0,0.09194609180571359,0.03820119825039264
202.5,0.0311370179756532,0.013316378374660905
203.0,0.05425111976010901,0.022944070967790924
203.5,0.07884748299336826,0.032960052675357884
204.0,0.00911597692960015,0.0039410822389487
204.5,0.045348398667909226,0.019261058295794033
205.0,0.05041357829470422,0.021360327076424372
205.5,0.04104524060927874,0.017469603016824646
206.0,0.024028769314397538,0.010312157986471707
206.5,0.024531645347301307,0.010525377268651753
207.0,0.0644771543196649,0.027136345098555732
207.5,0.009198771365652007,0.003976713120366181
208.0,0.03348463964872552,0.01430402623145204
208.5,0.0709381984618965,0.029764409355293668
209.0,0.027543642056995596,0.011800276389496347
209.5,0.04364959379816926,0.018554708413165526
210.0,0.05745951214515357,0.02426374816191705
210.5,0.032286798556931035,0.013800373382888196
211.0,0.02550178110361977,0.010936418992831739
211.5,0.012928888129864032,0.005578957130420485
212.0,0.07080907404021797,0.0297120427436007
212.5,0.00911828866523351,0.003942077142311808
