Frequency (Hz),Power,Log Power
0.0,0.0011547975884400041,0.0005012328647927094
0.1,0.0011548019587156813,0.0005012347605900626
0.2,0.0011548138767006162,0.0005012399305348128
0.30000000000000004,0.0011548343259705513,0.0005012488012957881
0.4,0.0011548627705881063,0.0005012611403864491
0.5,0.0011548991471550503,0.000501276920304784
0.6000000000000001,0.001154944075469978,0.0005012964099150309
0.7000000000000001,0.0011549965003831396,0.0005013191514997364
0.8,0.001155057725308727,0.0005013457104707364
0.9,0.0011551264723309237,0.0005013755324759084
1.0,0.0011552037337854105,0.0005014090479833462
1.1,0.0011552889775375914,0.000501446026155679
1.2000000000000002,0.001155382151083544,0.0005014864442160426
1.3,0.0011554838450596133,0.0005015305583777601
1.4000000000000001,0.0011555930417202237,0.0005015779271484665
1.5,0.0011557110602492845,0.0005016291227801113
1.6,0.0011558364988484722,0.0005016835371807648
1.7000000000000002,0.0011559704974291036,0.0005017416648349763
1.8,0.0011561124066954247,0.0005018032240812374
1.9000000000000001,0.0011562622756016167,0.0005018682361540621
2.0,0.0011564206239210633,0.0005019369265258485
2.1,0.0011565864544733535,0.0005020088626253335
2.2,0.001156761011301746,0.0005020845841076042
2.3000000000000003,0.0011569430294953685,0.0005021635422618028
2.4000000000000004,0.001157133614126078,0.0005022462164580571
2.5,0.0011573319637169246,0.0005023322590196313
2.6,0.0011575383707987353,0.0005024217968419929
2.7,0.001157753196047813,0.0005025149863817922
2.8000000000000003,0.0011579752750254314,0.0005026113225121732
2.9000000000000004,0.0011582063000692615,0.0005027115393536597
3.0,0.0011584447001756649,0.0005028149554148599
3.1,0.001158691522092828,0.0005029220247644433
3.2,0.0011589460234094004,0.0005030324253475532
3.3000000000000003,0.001159208566732291,0.0005031463144576501
3.4000000000000004,0.0011594793469022987,0.0005032637766122786
3.5,0.0011597580314274053,0.0005033846675762622
3.6,0.0011600453364689494,0.0005035092980113724
3.7,0.0011603403401317428,0.0005036372680044119
3.8000000000000003,0.0011606425891672345,0.0005037683809372842
3.9000000000000004,0.0011609540795888302,0.0005039035026595148
4.0,0.0011612720627710864,0.0005040414408390718
4.1000000000000005,0.0011615991714684745,0.0005041833375373864
4.2,0.0011619310225905709,0.0005043272914079616
4.3,0.0011622761045607945,0.0005044769846444376
4.4,0.0011626229645686744,0.000504627449124465
4.5,0.001162984021621159,0.0005047840720882792
4.6000000000000005,0.0011633501225001858,0.0005049428829562529
4.7,0.0011637238671810624,0.0005051050095685326
4.800000000000001,0.0011641050305463453,0.0005052703542677082
4.9,0.0011644990563716914,0.0005054412785019287
5.0,0.0011648952201696809,0.0005056131300982626
5.1000000000000005,0.0011652955328670823,0.0005057867813734965
5.2,0.0011657136439351425,0.0005059681533133193
5.300000000000001,0.0011661239078567635,0.0005061461211745771
5.4,0.0011665646092209171,0.0005063372923737287
5.5,0.0011670089812449826,0.0005065300557778983
5.6000000000000005,0.0011674429658070724,0.0005067183131395521
5.7,0.0011679031750360747,0.0005069179463618672
5.800000000000001,0.0011683682264874281,0.0005071196799887373
5.9,0.0011688404221335289,0.0005073245125839778
6.0,0.0011693101374407548,0.0005075282691432543
6.1000000000000005,0.0011697692618209757,0.0005077274313998602
6.2,0.0011702821602672994,0.0005079499200474621
6.300000000000001,0.0011707591059265277,0.0005081568127432464
6.4,0.0011712698370101875,0.0005083783609983979
6.5,0.0011717971556436072,0.0005086071045903193
6.6000000000000005,0.0011723144770741975,0.0005088315114156665
6.7,0.0011728523501187509,0.0005090648331217158
6.800000000000001,0.0011734044132264004,0.0005093043101457468
6.9,0.0011739243697089642,0.0005095298596575117
7.0,0.0011745063735277403,0.0005097823242567006
7.1000000000000005,0.0011750465765308722,0.0005100166561524111
7.2,0.0011756164222389127,0.0005102638464684435
7.300000000000001,0.001176159475555198,0.0005104994145254591
7.4,0.0011767933796088552,0.0005107743920534541
7.5,0.001177443911012763,0.0005110565820813104
7.6000000000000005,0.0011779621238913126,0.0005112813743363278
7.7,0.001178599915799277,0.0005115580378552779
7.800000000000001,0.0011792124648359735,0.0005118237512705804
7.9,0.0011798882324579357,0.0005121168876506839
8.0,0.0011804316505642024,0.0005123526129420664
8.1,0.001181103975828576,0.0005126442557319987
8.200000000000001,0.0011817757817928513,0.0005129356730631969
8.3,0.001182382731030044,0.0005131989565457182
8.4,0.0011831143476461645,0.0005135163182459059
8.5,0.0011836679829574973,0.0005137564748074688
8.6,0.0011842698218344128,0.0005140175410164532
8.700000000000001,0.0011851321805373283,0.0005143916154761531
8.8,0.001185728907915238,0.0005146504640365134
8.9,0.0011858044792120625,0.000514683245362785
9.0,0.0011871573990107284,0.0005152701146565596
9.1,0.0011877888055568063,0.0005155440057969355
9.200000000000001,0.0011885556060425642,0.0005158766278044036
9.3,0.001189464620619193,0.0005162709389790692
9.4,0.0011898917105576414,0.0005164562013800141
9.5,0.001190710565635631,0.000516811402825169
9.600000000000001,0.0011916296618535204,0.0005172100863410086
9.700000000000001,0.0011925171798802055,0.0005175950715918773
9.8,0.001192789558106363,0.0005177132230387836
9.9,0.001193488058826272,0.0005180162165337576
10.0,0.001194465774196032,0.0005184403265461587
10.100000000000001,0.0011954775779249923,0.0005188792228537862
10.200000000000001,0.0011959329218155835,0.0005190767400205259
10.3,0.0011969608899518789,0.0005195226474051259
10.4,0.0011980825907773641,0.0005200092132108812
10.5,0.0011987627521356052,0.0005203042499568895
10.600000000000001,0.0012003505855366036,0.0005209930110331765
10.700000000000001,0.0011998971426567828,0.0005207963193469595
10.8,0.0012015514159901019,0.000521513899511302
10.9,0.0012040061416558258,0.0005225786926119239
11.0,0.0012034596079624812,0.0005223416214150937
11.100000000000001,0.0012033864427246149,0.0005223098843491363
11.200000000000001,0.0012035133376902991,0.0005223649278903542
11.3,0.0012043738891800609,0.0005227382112416807
11.4,0.0012070109130068879,0.0005238820769880944
11.5,0.001206386616736175,0.0005236112753386815
11.600000000000001,0.0012069470198118031,0.0005238543619774319
11.700000000000001,0.0012082044252761678,0.0005243997875894156
11.8,0.0012089707529386237,0.0005247321977177867
11.9,0.001212754908340731,0.000526373647956521
12.0,0.0012121184275694788,0.0005260975626057545
12.100000000000001,0.0012121735665439363,0.000526121480166541
12.200000000000001,0.0012137232202776207,0.0005267936708992164
12.3,0.0012184035350356693,0.0005288238369616769
12.4,0.0012177007011229296,0.0005285189714137595
12.5,0.0012198321650972728,0.0005294435276381389
12.600000000000001,0.0012222514532041627,0.000530492929749177
12.700000000000001,0.0012178895782690353,0.0005286008999439223
12.8,0.0012161743401373141,0.0005278568869757135
12.9,0.0012223579418236977,0.0005305391207096702
13.0,0.0012196959812293584,0.0005293844557894782
13.100000000000001,0.0012195342685534772,0.000529314310417031
13.200000000000001,0.0012222910627507561,0.0005305101109566667
13.3,0.001220700244571185,0.0005298200702812274
13.4,0.0012220767751696196,0.0005304171606449722
13.5,0.0012255781523113766,0.000531935930704201
13.600000000000001,0.0012294775093140914,0.0005336273237014364
13.700000000000001,0.0012265510760436442,0.0005323579486911076
13.8,0.0012256907200653554,0.0005319847584136843
13.9,0.0012306425035305101,0.0005341326526761191
14.0,0.0012320113874897387,0.000534726420303928
14.100000000000001,0.0012316191675816471,0.0005345562909301061
14.200000000000001,0.001231649077726998,0.0005345692647622229
14.3,0.001232824008439098,0.0005350789026926059
14.4,0.0012356406373873162,0.0005363006411931778
14.5,0.0012392890298849246,0.0005378831596118425
14.600000000000001,0.001233139783791161,0.0005352158733032559
14.700000000000001,0.0012396892401423387,0.0005380567535504223
14.8,0.0012363063055776512,0.0005365893803410972
14.9,0.0012465276849813608,0.000541022965086177
15.0,0.0012368549613144513,0.0005368273642138245
15.100000000000001,0.0012350049505463992,0.0005360249065272552
15.200000000000001,0.0012442478771594943,0.0005400340886639567
15.3,0.0012477724134223322,0.0005415628704365809
15.4,0.0012524513661807952,0.0005435923766907243
15.5,0.0012516220833486134,0.000543232674093632
15.600000000000001,0.0012429144813957988,0.0005394557214881748
15.700000000000001,0.0012516713235867808,0.0005432540321247177
15.8,0.0012512384053364278,0.0005430662531144272
15.9,0.0012484972089203984,0.0005418772527304134
16.0,0.001243201293985431,0.0005395801279686591
16.1,0.0012521205634239423,0.0005434488905645344
16.2,0.0012534569393698747,0.0005440285450789336
16.3,0.0012451353822074006,0.0005404190480531902
16.400000000000002,0.0012700657822418203,0.0005512325841110762
16.5,0.0012439040674625044,0.0005398849595377159
16.6,0.0012573363281702615,0.0005457112297913919
16.7,0.0012545128178087105,0.0005444865329486473
16.8,0.0012557456584746038,0.0005450212776731216
16.900000000000002,0.0012855725487099046,0.0005579584927255885
17.0,0.0012596284410558223,0.0005467054305852757
17.1,0.0013069093618352334,0.000567212956912124
17.2,0.0012686733557616334,0.0005506286276182978
17.3,0.001267485117726175,0.0005501132359537521
17.400000000000002,0.0012734989790647233,0.000552721708704198
17.5,0.001268368401868944,0.0005504963556152155
17.6,0.001286925987941386,0.0005585455288405842
17.7,0.0012549993384671373,0.0005446975613967063
17.8,0.001316050201564493,0.0005711775736518784
17.900000000000002,0.0012300039061913007,0.0005338556541732188
18.0,0.0012424307516948735,0.000539245901086382
18.1,0.0014839232920808262,0.0006439820054542825
18.2,0.0013408766979729507,0.000581945279543895
18.3,0.001343670021033772,0.000583156778173064
18.400000000000002,0.0012225926485013743,0.0005306409280676588
18.5,0.0012353705091924108,0.0005361834707734227
18.6,0.0012595514140393714,0.0005466720202604387
18.7,0.0013566997769060975,0.0005888078991907488
18.8,0.00127513795860234,0.0005534326025680727
18.900000000000002,0.001127497937697544,0.0004893902912429622
19.0,0.0011536199501108071,0.0005007220125947046
19.1,0.0015274655093824715,0.0006628637200691707
19.200000000000003,0.0010327053458249178,0.00044826680917711177
19.3,0.00136286886452255,0.0005914834617130251
19.400000000000002,0.001228987093463391,0.0005334146002901731
19.5,0.0009865066221391296,0.00042822319455903185
19.6,0.0012503354458423743,0.0005426745926725328
19.700000000000003,0.002127855271951625,0.0009231340030611071
19.8,0.0016222903394335257,0.0007039808660530517
19.900000000000002,0.002807901502405998,0.001217747269998519
20.0,0.00161288549020701,0.0006999029882566566
20.1,0.001486832645122547,0.0006452436474109882
20.200000000000003,0.0010810453773978327,0.00046923845373383004
20.3,0.0012677008910202785,0.0005502068264700472
20.400000000000002,0.0013637607896130619,0.0005918702924859509
20.5,0.0012857202422845917,0.0005580225528713993
20.6,0.001419389252814259,0.000615995854567626
20.700000000000003,0.0018341544334863858,0.0007958335315238404
20.8,0.000987463806195134,0.00042863848442776555
20.900000000000002,0.0008908280734677022,0.0003867094963558685
21.0,0.0013453902613135714,0.0005839028658966874
21.1,0.0019383220874395746,0.000840987797165829
21.200000000000003,0.0015979355625137664,0.0006934207238499734
21.3,0.0008854283415531357,0.0003843665034597238
21.400000000000002,0.0024852764378618464,0.0010780028296288465
21.5,0.00149564097695891,0.0006490633612244717
21.6,0.0007898883408284352,0.0003429087357573427
21.700000000000003,0.0022540990431591215,0.0009778411143125775
21.8,0.0031406058188673054,0.0013618104396582152
21.900000000000002,0.0005322009245861763,0.00023107044231264796
22.0,0.0029453734006061176,0.001277279304816165
22.1,0.000902907712421059,0.0003919509160357239
22.200000000000003,0.0011561446159811851,0.0005018171962426614
22.3,0.0016555532043973195,0.0007184031078343718
22.400000000000002,0.0020713118323602247,0.0008986289496592914
22.5,0.0008330999783824702,0.0003616600948856174
22.6,0.0039039579626141355,0.0016921664723504746
22.700000000000003,0.0025016756064697313,0.0010851071835271454
22.8,0.0010659920093360935,0.0004627078697544654
22.900000000000002,0.002253978942578363,0.0009777890725971127
23.0,0.001200207938918741,0.0005209311346631055
23.1,0.0007371516139495269,0.00032002294003718166
23.200000000000003,0.0007735271470359885,0.0003358087097211097
23.3,0.0007558250755903587,0.0003281266720445342
23.400000000000002,0.0013470469398860951,0.0005846213849752841
23.5,0.0011117417029239277,0.00048255509824255094
23.6,0.001432577772363833,0.0006217153998552794
23.700000000000003,0.0014636860311669575,0.0006352060088149822
23.8,0.0014393484958327327,0.0006246516713187952
23.900000000000002,0.0006025793872045318,0.000261618087851781
24.0,0.0016073052221747155,0.0006974834044033971
24.1,0.0037043648898620603,0.0016058128052320094
24.200000000000003,0.000430657493594923,0.0001869919112140473
24.3,0.001292235940965598,0.0005608486420871497
24.400000000000002,0.00151810492859165,0.0006588046525723146
24.5,0.0008925156609149223,0.00038744175333902666
24.6,0.0019634689088793207,0.0008518876584646946
24.700000000000003,0.0013957348707809246,0.0006057373264921691
24.8,0.004393459288655183,0.0019038758806957823
24.900000000000002,0.004021273173329167,0.0017429147252483131
25.0,0.0025680208279981755,0.0011138476943155485
25.1,0.0010567506293723582,0.0004586986447074996
25.200000000000003,0.001980395655893746,0.0008592243837643644
25.3,0.0017847864253120363,0.0007744320034190789
25.400000000000002,0.0021502794679278637,0.0009328519203552585
25.5,0.0018989300654486123,0.0008239128198786039
25.6,0.0012259120664053643,0.0005320807702163012
25.700000000000003,0.0010958177546025105,0.00047564704033064735
25.8,0.00203063872056101,0.0008810009961374754
25.900000000000002,0.00035206286097380315,0.00015287204909728868
26.0,0.0030911988798118157,0.0013404199293956078
26.1,0.0026698209703695393,0.0011579434511432636
26.200000000000003,0.001466973366598593,0.000636631591504459
26.3,0.001786318614871311,0.0007750962388626113
26.400000000000002,0.0016625659960857163,0.0007214436800767564
26.5,0.0010119606091138224,0.0004392666856177397
26.6,0.0015432270786237064,0.0006696983890332901
26.700000000000003,0.0009794488190987872,0.00042516103967431935
26.8,0.00274778983282255,0.0011917134216055528
26.900000000000002,0.0005330088408253727,0.00023142112909959966
27.0,0.0009899712087602798,0.0004297263599241641
27.1,0.002345196500840654,0.0010173134650229552
27.200000000000003,0.0017429632996249222,0.000756300432536673
27.3,0.0007518386266419431,0.00032639668338436305
27.400000000000002,0.002617851250799937,0.0011354328031670852
27.5,0.0018733965328570335,0.0008128446239948371
27.6,0.0032659713810221833,0.0014160821635990513
27.700000000000003,0.000925772655397149,0.0004018719633874472
27.8,0.0014339106123798504,0.0006222934164804781
27.900000000000002,0.0016906671453103478,0.0007336274266495827
28.0,0.0015318453331205964,0.0006647629481857687
28.1,0.0023078032709678924,0.0010011114855301509
28.200000000000003,0.0010507331169033614,0.00045608802316865965
28.3,0.0014818989859744034,0.0006431041622460101
28.400000000000002,0.0016895948730255715,0.0007331625304487069
28.5,0.0018450375110488637,0.0008005513132431453
28.6,0.0017383011119017676,0.0007542791883776557
28.700000000000003,0.0014586139293159058,0.0006330064368739494
28.8,0.0017953651256947672,0.0007790180652229353
28.900000000000002,0.007109283630664582,0.003076599354614332
29.0,0.009017613962003674,0.003898747584516156
29.1,0.004984870228485065,0.002159523621441283
29.200000000000003,0.0004534427642567989,0.00019688305614976742
29.3,0.001707653084618089,0.0007409918130893568
29.400000000000002,0.008205535147260037,0.003549077427972655
29.5,0.004798719545345715,0.0020790729548794116
29.6,0.0035955965239039206,0.0015587470929861549
29.700000000000003,0.003690027925159151,0.00159960927623926
29.8,0.0036885314018679284,0.0015989617333985434
29.900000000000002,0.0020174704721899286,0.0008752936505126579
30.0,0.0018026739692438099,0.0007821865554695053
30.1,0.0022291558693313483,0.0009670326600851412
30.200000000000003,0.0027415960085579567,0.001189030840766194
30.3,0.0028629822651266125,0.0012416009057153415
30.400000000000002,0.002975024338649875,0.0012901185369124186
30.5,0.0014929518256302605,0.0006478972202018318
30.6,0.0015049195159666205,0.0006530869430154243
30.700000000000003,0.0036376170467767297,0.0015769306115625166
30.8,0.0018287022827964416,0.0007934700211646413
30.900000000000002,0.003170024531261926,0.0013745466373988931
31.0,0.0012781338560982343,0.000554732045403587
31.1,0.0026869779040555267,0.0011653747088930717
31.200000000000003,0.0020858459374388737,0.0009049279383495381
31.3,0.0024787204384895075,0.0010751626446128717
31.400000000000002,0.00249770457242002,0.001083386885563631
31.5,0.0011792606453732944,0.0005118446511661604
31.6,0.0020244544925894486,0.0008783206545719639
31.700000000000003,0.0021887134521810336,0.0009495074535157863
31.8,0.00031644844136064946,0.00013741007143486941
31.900000000000002,0.0014533510371671275,0.0006307241148756445
32.0,0.0036381220185986666,0.001577149123121746
32.1,0.0013583582409051969,0.0005895271845032816
32.2,0.0014890814568835978,0.000646218842900638
32.300000000000004,0.0031227599233079094,0.0013540842616313665
32.4,0.00269372998831016,0.001168299233819027
32.5,0.0021112762397444496,0.0009159490498388196
32.6,0.0013509767131885725,0.0005863257646073361
32.7,0.0019709658989339606,0.0008551371673858701
32.800000000000004,0.003139283460761694,0.0013612379444332269
32.9,0.000504378732037359,0.00021899367687810205
33.0,0.0024768653781406906,0.001074358993420976
33.1,0.001666228439998067,0.0007230316163015442
33.2,0.0003689463721322236,0.0001602018224115246
33.300000000000004,0.004348267252428378,0.0018843346408208427
33.4,0.009503284793919813,0.004107736420373919
33.5,0.005851100130554585,0.002533695254875773
33.6,0.0021419517051552268,0.0009292429641736599
33.7,0.006127138550448123,0.00265286350530763
33.800000000000004,0.00540712133711411,0.0023419570273850135
33.9,0.0031920959017901615,0.0013841017165455455
34.0,0.004086000263167512,0.0017709118530193839
34.1,0.00429041501412027,0.001859317789266869
34.2,0.0031556972427575648,0.0013683439931615109
34.300000000000004,0.0005886645833462072,0.0002555785625932991
34.4,0.004161090728949673,0.0018033893057135754
34.5,0.005677845861586506,0.0024588831341603324
34.6,0.003210459099156996,0.0013920513030000678
34.7,0.005873210618905267,0.002543241754892652
34.800000000000004,0.0036969649798337663,0.00160261091426575
34.9,0.004741356240760206,0.002054278657963248
35.0,0.0028746877607720802,0.0012466699954998995
35.1,0.0015889312631608716,0.0006895164275637773
35.2,0.0009968454854735085,0.000432708857529777
35.300000000000004,0.000642287626682395,0.00027885242991349587
35.4,0.002983642858090797,0.0012938503939008401
35.5,0.0033148622722635633,0.0014372455714514588
35.6,0.010081121908431306,0.004356254359298678
35.7,0.009665978176333119,0.0041777224682728676
35.800000000000004,0.00117800371969935,0.0005112994179112465
35.9,0.0031884271422897292,0.0013825134614880786
36.0,0.0016391455074981419,0.0007112890549406251
36.1,0.0037742101948694956,0.0016360332329270167
36.2,0.004034242293718648,0.001748524547663126
36.300000000000004,0.005543595435549566,0.002400904218352865
36.4,0.007228469120653207,0.0031279925240217214
36.5,0.004038490311106492,0.0017503620214564016
36.6,0.003179979441366644,0.001378856316684946
36.7,0.003224152941337301,0.001397979390623075
36.800000000000004,0.004426964208030473,0.0019183629910740788
36.9,0.003179983204420663,0.0013788579457779907
37.0,0.004932616133826727,0.002136941933261472
37.1,0.0038175146892157875,0.0016547690174055696
37.2,0.005382101171786137,0.0023311492116108003
37.300000000000004,0.003999743018793993,0.0017336016481100513
37.4,0.0024256923215254223,0.0010521891617455
