Frequency (Hz),Power,Log Power
0.0,0.003326107363169878,0.0014421130898596077
0.1,0.0033261094275405727,0.0014421139834322806
0.2,0.003326115216175522,0.0014421164890704434
0.30000000000000004,0.0033261251012496407,0.0014421207678718638
0.4,0.00332613896180051,0.001442126767477073
0.5,0.0033261566525468796,0.0014421344250005704
0.6000000000000001,0.0033261785005072493,0.0014421438819936388
0.7000000000000001,0.0033262039422301158,0.0014421548945636128
0.8,0.0033262336660163927,0.0014421677606445927
0.9,0.0033262671722113324,0.0014421822639585063
1.0,0.0033263047769224265,0.0014421985413338354
1.1,0.0033263462652033606,0.0014422164997297843
1.2000000000000002,0.003326391634856198,0.0014422361381949142
1.3,0.0033264413263662733,0.0014422576473949549
1.4000000000000001,0.003326494643544266,0.001442280725980976
1.5,0.0033265524575790874,0.0014423057510508223
1.6,0.003326613864932339,0.0014423323315033805
1.7000000000000002,0.0033266796079172924,0.001442360788652037
1.8,0.0033267493067872457,0.0014423909581214667
1.9000000000000001,0.00332682315878473,0.0014424229252884865
2.0,0.003326901114524036,0.001442456668776018
2.1,0.003326983023763808,0.0014424921235509133
2.2,0.0033270693892313505,0.0014425295072204032
2.3000000000000003,0.003327159607831179,0.001442568558731666
2.4000000000000004,0.003327254156010521,0.001442609484316317
2.5,0.003327352813304614,0.0014426521885448208
2.6,0.0033274558936502653,0.001442696807305446
2.7,0.003327563121233317,0.001442743221210356
2.8000000000000003,0.003327674376610202,0.00144279137855734
2.9000000000000004,0.003327790307551633,0.0014428415597359898
3.0,0.0033279102525183585,0.0014428934783956016
3.1,0.003328034929822883,0.0014429474454600447
3.2,0.003328163861496399,0.00144300325403792
3.3000000000000003,0.0033282971442569675,0.0014430609459932585
3.4000000000000004,0.0033284349079852355,0.001443120577544594
3.5,0.0033285772357895603,0.0014431821846650054
3.6,0.0033287238932299314,0.0014432456658753407
3.7,0.0033288749049765285,0.0014433110318532944
3.8000000000000003,0.0033290304574506726,0.0014433783632913297
3.9000000000000004,0.0033291918134025276,0.00144344820677416
4.0,0.003329355974588272,0.0014435192645005468
4.1000000000000005,0.003329526139828057,0.0014435929210899737
4.2,0.0033296994729855238,0.001443667948910165
4.3,0.003329879982359051,0.0014437460829651084
4.4,0.003330064783759539,0.0014438260748228747
4.5,0.0033302505590502357,0.0014439064882172206
4.6000000000000005,0.0033304475464236882,0.001443991754779133
4.7,0.0033306461108442197,0.0014440777039534916
4.800000000000001,0.003330850247933338,0.001444166065255651
4.9,0.003331060155233993,0.001444256924190992
5.0,0.0033312693004661624,0.0014443474532439874
5.1000000000000005,0.003331488984314403,0.00144444254394386
5.2,0.0033317111540163208,0.0014445387106305312
5.300000000000001,0.0033319432815165795,0.0014446391875512843
5.4,0.0033321748237543987,0.001444739411116662
5.5,0.003332415404413665,0.0014448435469580376
5.6000000000000005,0.0033326637876119297,0.0014449510601185626
5.7,0.0033329093625943705,0.001445057357711197
5.800000000000001,0.0033331699094752754,0.0014451701358896393
5.9,0.003333424899703724,0.0014452805088329653
6.0,0.003333701150666173,0.0014454000844886367
6.1000000000000005,0.003333974346750982,0.0014455183378034068
6.2,0.003334249803767063,0.0014456375697327823
6.300000000000001,0.003334539425500421,0.0014457629328433932
6.4,0.003334831944092176,0.0014458895498258243
6.5,0.003335118894775205,0.0014460137566971636
6.6000000000000005,0.0033354505190622747,0.0014461573005355656
6.7,0.003335721139463971,0.0014462744387580945
6.800000000000001,0.0033360728869470807,0.0014464266928450919
6.9,0.003336345656384,0.0014465447612055737
7.0,0.003336710714724658,0.0014467027768049973
7.1000000000000005,0.0033370316248083876,0.0014468416827722783
7.2,0.0033373696749918,0.0014469880077856065
7.300000000000001,0.0033376893184181725,0.0014471263653892828
7.4,0.003338062336770566,0.0014472878262649408
7.5,0.003338454457732317,0.0014474575556344496
7.6000000000000005,0.003338738693669826,0.0014475805869816098
7.7,0.0033391753432845794,0.0014477695904254186
7.800000000000001,0.0033395286286075966,0.0014479225096406482
7.9,0.0033398911682745417,0.001448079434533858
8.0,0.003340286467160222,0.0014482505391539592
8.1,0.0033406467735331365,0.0014484064972507137
8.200000000000001,0.0033410994185190663,0.001448602423904282
8.3,0.0033416135101350455,0.0014488249475255387
8.4,0.0033418982995963176,0.0014489482180770126
8.5,0.003342151846425941,0.0014490579652880512
8.6,0.003342840309559766,0.0014493559649653173
8.700000000000001,0.0033429143384544687,0.0014493880081892603
8.8,0.0033436574234363943,0.001449709650554147
8.9,0.003342079234954108,0.0014490265355683134
9.0,0.003343589353147141,0.0014496801865197114
9.1,0.003344973293349377,0.001450279220773846
9.200000000000001,0.0033451861761212647,0.0014503713663526466
9.3,0.0033460760523560933,0.0014507565460218678
9.4,0.003345368143121526,0.0014504501301300281
9.5,0.003347483768166477,0.0014513658699572911
9.600000000000001,0.0033486626786021416,0.0014518761557798824
9.700000000000001,0.0033483505171031007,0.0014517410382054526
9.8,0.0033485027463562543,0.0014518069298966095
9.9,0.0033508553004397124,0.0014528252202077754
10.0,0.0033517247470276354,0.0014532015548566282
10.100000000000001,0.0033533040144681147,0.0014538851302950424
10.200000000000001,0.0033504210249340094,0.0014526372465835887
10.3,0.003352564092980005,0.0014535648603197378
10.4,0.0033533440945177706,0.0014539024786646702
10.5,0.003345491337905903,0.0014505034545519739
10.600000000000001,0.003353092002658019,0.001453793362451564
10.700000000000001,0.0033708800712604205,0.0014614927372987364
10.8,0.003343307696884514,0.0014495582723727735
10.9,0.003356435206046196,0.0014552404426230183
11.0,0.0033444642970273607,0.0014500589033795345
11.100000000000001,0.0033521085325514317,0.001453367673974416
11.200000000000001,0.003357404232731821,0.0014556598775559764
11.3,0.0033612394762403217,0.001457319926011443
11.4,0.003359522332894933,0.0014565766777291842
11.5,0.003359695347802641,0.001456651565555098
11.600000000000001,0.0033599749161199103,0.0014567725739643485
11.700000000000001,0.003358908959834277,0.0014563111850408254
11.8,0.0033627836875738996,0.0014579883213196943
11.9,0.003362110273700256,0.0014576968414758938
12.0,0.003361431240250889,0.00145740292906192
12.100000000000001,0.0033645595881870265,0.0014587569995751831
12.200000000000001,0.0033645363347234824,0.0014587469345883877
12.3,0.0033647313977760687,0.0014588313653172652
12.4,0.0033667063329537203,0.0014596861916618667
12.5,0.0033660287292270876,0.0014593928994318908
12.600000000000001,0.00336673938138538,0.001459700496253823
12.700000000000001,0.0033670691547634537,0.0014598432344263778
12.8,0.003370645267839269,0.00146139110604344
12.9,0.003370418609053313,0.0014612930000527965
13.0,0.0033730773141119135,0.0014624437808459427
13.100000000000001,0.00337054933826726,0.001461349584312675
13.200000000000001,0.00337424291420593,0.001462948292484082
13.3,0.003376803240297595,0.0014640564872406515
13.4,0.0033741797163322623,0.001462920938295123
13.5,0.0033726070088397632,0.0014622402164520473
13.600000000000001,0.0033758764526310636,0.0014636553428708664
13.700000000000001,0.003374465217462783,0.001463044512880184
13.8,0.003379335921629635,0.0014651527136385065
13.9,0.0033795070626293517,0.0014652267888988272
14.0,0.0033803857455242704,0.0014656071105645738
14.100000000000001,0.0033778941329454634,0.0014645286612018195
14.200000000000001,0.003383485388880362,0.0014669487312950816
14.3,0.0033789188529098502,0.0014649721929971735
14.4,0.003388848316392542,0.0014692699610492743
14.5,0.0033859315363440595,0.0014680074960305275
14.600000000000001,0.0033860666308351476,0.0014680659688337111
14.700000000000001,0.003393877550046918,0.001471446747201628
14.8,0.0034001943749369335,0.001474180821645326
14.9,0.0033917970506639364,0.0014705462530302034
15.0,0.0033910466389554094,0.0014702214548936166
15.100000000000001,0.0033896240913098867,0.0014696057377883303
15.200000000000001,0.0033949122966400753,0.001471894611708258
15.3,0.0034005352740160253,0.001474328370514319
15.4,0.0033945987885303096,0.0014717589175147047
15.5,0.003400583827010507,0.0014743493853497172
15.600000000000001,0.003382702190452629,0.001466609739381149
15.700000000000001,0.003404407304075644,0.0014760042696043757
15.8,0.003407574059671327,0.0014773749057113393
15.9,0.003380518268434032,0.0014656644706300586
16.0,0.0033990846977888295,0.0014737005278091925
16.1,0.0034047258398040227,0.0014761421385296012
16.2,0.0034080242831810792,0.0014775697712347026
16.3,0.003389611437931874,0.0014696002610601457
16.400000000000002,0.0034092538931310853,0.0014781019699774793
16.5,0.003411855587026959,0.0014792280307880253
16.6,0.0033996187890954167,0.001473931694898197
16.7,0.0034151868929156665,0.001480669876781098
16.8,0.0034211505483190737,0.0014832510365750543
16.900000000000002,0.003401122349884508,0.001474582470174961
17.0,0.0034225662798142427,0.0014838637842155837
17.1,0.003421464208067863,0.0014833867928093648
17.2,0.0034360198405530016,0.001489686623185207
17.3,0.003412998818291395,0.001479722841312765
17.400000000000002,0.003432866467515074,0.0014883218180212583
17.5,0.003427526035173094,0.0014860104262514736
17.6,0.003409425384429322,0.0014781761946448166
17.7,0.0034225154014692473,0.0014838417633983047
17.8,0.003351314918519712,0.0014530241631290585
17.900000000000002,0.003378409496515886,0.0014647517272058292
18.0,0.003439907892466123,0.0014913693973596113
18.1,0.0033977329003434323,0.001473115438012259
18.2,0.003428979658679222,0.0014866395700549593
18.3,0.00340226333942922,0.0014750763157273148
18.400000000000002,0.003447218132891129,0.0014945332993417458
18.5,0.0033942327053226515,0.0014716004674431766
18.6,0.0034953205468968916,0.0015153516462254324
18.7,0.0034745896355041317,0.001506379593005007
18.8,0.0032032084458641294,0.0013889124500643644
18.900000000000002,0.003453765501412637,0.0014973670076742472
19.0,0.003400887188022743,0.0014744806868416459
19.1,0.0033636738011258317,0.001458373596953499
19.200000000000003,0.0034424086310344904,0.0014924517298432023
19.3,0.0034033188132665984,0.001475533147686897
19.400000000000002,0.0033585314852530045,0.0014561477986822407
19.5,0.0034971649342544564,0.0015161498627187667
19.6,0.0033597397808697513,0.0014566707979755075
19.700000000000003,0.0032034791418841797,0.0013890296364638172
19.8,0.0035715800992485993,0.0015483541363607374
19.900000000000002,0.0033174406262061855,0.001438361635304349
20.0,0.003975557359270338,0.0017231396683528282
20.1,0.0017761443627973136,0.0007706854739227662
20.200000000000003,0.0036262832516717864,0.0015720262193972521
20.3,0.002890536211188049,0.001253533106376668
20.400000000000002,0.0031224191408781824,0.001353936722406999
20.5,0.0043228873694357,0.0018733598796108358
20.6,0.0032380643717979203,0.0014040015897279752
20.700000000000003,0.0024979497826606214,0.001083493113678635
20.8,0.003876051084393844,0.0016800936325329751
20.900000000000002,0.003988010884595143,0.0017285267156223975
21.0,0.0032754175623494553,0.0014201712139901056
21.1,0.003775515912043955,0.0016365981661453403
21.200000000000003,0.004424453757475984,0.0019172775202292152
21.3,0.0037794187574217456,0.0016382867717042884
21.400000000000002,0.003622932532833819,0.0015705762761711818
21.5,0.0037290582506186525,0.0016164972844213677
21.6,0.004622589091416614,0.002002939110669064
21.700000000000003,0.0031767795050053208,0.0013774710050268668
21.8,0.003290682823487846,0.001426779138519493
21.900000000000002,0.0031875321429665803,0.0013821260034291543
22.0,0.0031630440857458985,0.0013715246376957708
22.1,0.0044193081740564475,0.001915052659811847
22.200000000000003,0.00559543544360364,0.0024232933511765947
22.3,0.006032083405369208,0.0026118310417087864
22.400000000000002,0.001786682092361334,0.0007752538136234945
22.5,0.002118298100185464,0.0009189921695306171
22.6,0.0050360651003204995,0.002181646426188101
22.700000000000003,0.004223724838421022,0.0018304773895511176
22.8,0.0051512027307930915,0.002231396654366917
22.900000000000002,0.0041509404998222,0.0017989993618884304
23.0,0.003317420030704166,0.0014383527203661775
23.1,0.0044586473218634765,0.0019320619308537546
23.200000000000003,0.0047513881657461855,0.0020586148862740735
23.3,0.0037418247050343984,0.0016220210514193512
23.400000000000002,0.003807210169513827,0.0016503108176336167
23.5,0.0036045555269126977,0.0015626239814629944
23.6,0.0037688535665533463,0.0016337156197597036
23.700000000000003,0.0036939212577202975,0.0016012939094637592
23.8,0.0038509880619363094,0.0016692507917070959
23.900000000000002,0.0032430118299489755,0.001406143303198278
24.0,0.0033303057901811375,0.0014439303951758215
24.1,0.0029855256851604854,0.001294665662071079
24.200000000000003,0.004024789353014638,0.0017444356638993282
24.3,0.003893074616563892,0.0016874582502965768
24.400000000000002,0.004276404380190538,0.0018532590005375332
24.5,0.0034539025682560494,0.0014974263301579878
24.6,0.005227627651286383,0.00226441622337996
24.700000000000003,0.00582036262999228,0.002520423577934592
24.8,0.008431067765209981,0.0036462169639026537
24.900000000000002,0.0018232192560499747,0.0007910931130454228
25.0,0.0014657026880733055,0.0006360805508445271
25.1,0.0032321283611699628,0.001401431926176957
25.200000000000003,0.002845444683561174,0.0012340061079892661
25.3,0.0024866025908374667,0.0010785773423444723
25.400000000000002,0.003531591604355751,0.0015310488150212449
25.5,0.002941362623971527,0.0012755425585390518
25.6,0.003177671340181402,0.0013778570974200704
25.700000000000003,0.004032495205230482,0.0017477688448015556
25.8,0.003282945708127733,0.0014234299601400765
25.900000000000002,0.002902979057502317,0.00125892135741293
26.0,0.003782780418974515,0.001639741223340164
26.1,0.0028491506258410742,0.0012356110086418342
26.200000000000003,0.0032347796631311035,0.001402579660841262
26.3,0.003404263798891823,0.0014759421575452456
26.400000000000002,0.0029463224783506502,0.0012776902733925189
26.5,0.0032543386485825174,0.0014110465489753149
26.6,0.0026407804881428006,0.0011453647302462708
26.700000000000003,0.0033725252171266326,0.0014622048141589219
26.8,0.0036728871758278537,0.0015921924481266927
26.900000000000002,0.003395071373661084,0.001471963464226889
27.0,0.0022302916233752955,0.0009675248144310812
27.1,0.0034488036564700795,0.001495219517395748
27.200000000000003,0.004470874569225659,0.0019373485534061674
27.3,0.004624826930589885,0.0020039065188604123
27.400000000000002,0.002837065303844643,0.001230377299985442
27.5,0.0031809016660950588,0.0013792555640131543
27.6,0.001583079720294551,0.0006869791589082612
27.700000000000003,0.0036082113065380125,0.0015642059611560598
27.8,0.002782045056835535,0.0012065492565134176
27.900000000000002,0.004127947258451343,0.001789054689453084
28.0,0.0027639930963270164,0.00119873106965816
28.1,0.002711307626780466,0.001175912530135292
28.200000000000003,0.0017332049308048326,0.0007520697800355973
28.3,0.0019234647452483688,0.0008345477704415277
28.400000000000002,0.0020217120873264644,0.0008771320477497528
28.5,0.0020058894386515407,0.0008702741691421116
28.6,0.003483233921548598,0.0015101207436012854
28.700000000000003,0.0025154396578581373,0.001091069877332809
28.8,0.0030983595666272926,0.001343520181570117
28.900000000000002,0.011966082803697398,0.00516595687330568
29.0,0.019548760911447246,0.008408001166998864
29.1,0.008818941360218255,0.003813227858240959
29.200000000000003,0.00468883741043064,0.002031577059982502
29.3,0.0033752462419206915,0.0014633825666099565
29.400000000000002,0.006378417712124262,0.0027613145389563756
29.5,0.0029571993333059442,0.001282400129112162
29.6,0.003602872863695079,0.0015618958341474842
29.700000000000003,0.0051437619194027685,0.0022281816999601667
29.8,0.005092396067823555,0.002205987386306658
29.900000000000002,0.008624709281179282,0.0037296032966637345
30.0,0.005981688927777611,0.002590075680148098
30.1,0.004905503038557761,0.00212522450432926
30.200000000000003,0.0037464278816485464,0.001624012728531443
30.3,0.003270856544616088,0.001418196851515555
30.400000000000002,0.00621997504884471,0.002692934503724323
30.5,0.005475707495841776,0.0023715824136629734
30.6,0.004466436547333062,0.0019354297195949962
30.700000000000003,0.005206231924670094,0.0022551724017423427
30.8,0.004452943048280277,0.0019295955858415008
30.900000000000002,0.0034862385567619625,0.001511421108665292
31.0,0.006847770616663479,0.0029638127792249694
31.1,0.005178165582831474,0.00224304630545586
31.200000000000003,0.006945016956896688,0.0030057570639021834
31.3,0.0047217030822908545,0.0020457835943333297
31.400000000000002,0.0052806223807761975,0.002287311248647677
31.5,0.006967225512172766,0.003015335488229089
31.6,0.00554526032719612,0.0024016232847958916
31.700000000000003,0.005434950946966544,0.002353978106672904
31.8,0.004987377722014588,0.0021606072091419314
31.900000000000002,0.004235457004588754,0.001835551144670077
32.0,0.003924709615293532,0.0017011436608873863
32.1,0.004974818384887592,0.0021551797928241146
32.2,0.002501767788418035,0.0010851471177343492
32.300000000000004,0.006211854747117255,0.002689429687134328
32.4,0.004343561036301852,0.0018822996012337462
32.5,0.00617236682804867,0.0026723858391736093
32.6,0.004791683236893073,0.002076031708335144
32.7,0.006800132037834421,0.0029432638323234196
32.800000000000004,0.0044442720152426,0.0019258464823309663
32.9,0.004254798348380981,0.0018439154758978543
33.0,0.004765758533988647,0.002064826300434915
33.1,0.003274622114074479,0.001419826882884823
33.2,0.006546604011781254,0.0028338879147696205
33.300000000000004,0.004358751674815942,0.0018888682305838254
33.4,0.0049623905688786765,0.002149809145531426
33.5,0.0034588915974407518,0.0014995855747960785
33.6,0.0037901809550527923,0.0016429431114347193
33.7,0.004289602580855385,0.0018589664611835827
33.800000000000004,0.004498811070408552,0.0019494270515486647
33.9,0.0030470790391049865,0.0013213175538760102
34.0,0.0032064687068973194,0.0013903238401631894
34.1,0.0015864777357899175,0.0006884525632674616
34.2,0.004844529911534504,0.0020988726773014145
34.300000000000004,0.004516568187191424,0.0019571042628962554
34.4,0.006886770184740063,0.002980634556744576
34.5,0.004953260362965367,0.0021458635092605903
34.6,0.006400333240596195,0.002770771905375056
34.7,0.005916872100778698,0.002562092569214919
34.800000000000004,0.006530398237076758,0.002826895555787446
34.9,0.005634549602068305,0.0024401855647115007
35.0,0.00812173922733123,0.0035129800085560866
35.1,0.0084840792907768,0.0036690464945052107
35.2,0.004548858573368902,0.00197106452158148
35.300000000000004,0.010321038383460974,0.004459396598760241
35.4,0.00920177031910123,0.003978003675840721
35.5,0.004083717640909535,0.0017699245557386536
35.6,0.006614510499799494,0.0028631865266197628
35.7,0.013143006860851373,0.0056707510928322505
35.800000000000004,0.01711663014479257,0.007370755208033274
35.9,0.02687452601510894,0.011517380317473907
36.0,0.09450887725784025,0.03921928836028633
36.1,0.06921432295740348,0.029064767835810232
36.2,0.03286857233577504,0.01404506310658923
36.300000000000004,0.026118384066325835,0.011197468554380672
36.4,0.015077404996427493,0.006499160752746676
36.5,0.010949233825898172,0.004729347457626002
36.6,0.018339963069365358,0.007892787271417293
36.7,0.012563736049924694,0.005422369510008555
36.800000000000004,0.01329209035790303,0.005734652611630514
36.9,0.01483363758683604,0.0063948538751136715
37.0,0.006227915594222049,0.0026963617080327518
37.1,0.007841647974298614,0.00339230114387398
37.2,0.0020976374560582557,0.000910038240387362
37.300000000000004,0.011605164431635765,0.005011037831754647
37.4,0.00585762890728783,0.002536514163665009
37.5,0.005505080982147576,0.0023842694995773006
37.6,0.00754861946394902,0.003266012287528815
37.7,0.009802664838204904,0.004236512450773117
37.800000000000004,0.009787219360293057,0.004229869630980788
37.9,0.009643722045307815,0.0041681491820235025
