Frequency (Hz),Power,Log Power
0.0,0.025908608549339407,0.0111086740598532
0.1,0.025908653190161657,0.011108692957503675
0.2,0.02590879492515042,0.011108752957698732
0.30000000000000004,0.025909034834420495,0.011108854517662399
0.4,0.025909369379564368,0.011108996139464505
0.5,0.025909797283633983,0.011109177282500103
0.6000000000000001,0.025910321905692285,0.011109399368698447
0.7000000000000001,0.02591094120906682,0.011109661535820934
0.8,0.025911655635223293,0.011109963970678562
0.9,0.025912465477414007,0.011110306797328356
1.0,0.025913372722052994,0.01111069085657267
1.1,0.025914376242634575,0.011111115671424941
1.2000000000000002,0.02591547579314025,0.011111581137620152
1.3,0.02591666738565214,0.011112085566848694
1.4000000000000001,0.025917958131584103,0.011112631969398684
1.5,0.02591934566161783,0.011113219342126553
1.6,0.025920827878292797,0.011113846796965598
1.7000000000000002,0.02592240470547616,0.011114514301513539
1.8,0.02592408100189257,0.011115223912382307
1.9000000000000001,0.025925854814454335,0.011115974802585377
2.0,0.025927721492298494,0.01111676500311102
2.1,0.025929687374506693,0.011117597197191735
2.2,0.025931749375007404,0.011118470078199234
2.3000000000000003,0.02593391061784311,0.01111938496834623
2.4000000000000004,0.02593617002207821,0.011120341409790476
2.5,0.025938523233615403,0.011121337559105745
2.6,0.02594097999204943,0.011122377538918973
2.7,0.02594353055970501,0.011123457226837972
2.8000000000000003,0.02594618019525231,0.011124578848620243
2.9000000000000004,0.02594892959807123,0.011125742699995599
3.0,0.025951776391370446,0.011126947774507545
3.1,0.02595472208765096,0.011128194712066357
3.2,0.025957765851373438,0.011129483158622071
3.3000000000000003,0.0259609148134639,0.011130816132362675
3.4000000000000004,0.025964159731342557,0.01113218972045943
3.5,0.025967505312428044,0.011133605915188473
3.6,0.025970951624498913,0.011135064744823661
3.7,0.025974497212064438,0.011136565592826901
3.8000000000000003,0.02597814513613054,0.011138109754480185
3.9000000000000004,0.025981891376544577,0.011139695527605176
4.0,0.025985743268907242,0.011141326016868002
4.1000000000000005,0.02598969996645593,0.011143000863336201
4.2,0.02599375414063299,0.011144716964380038
4.3,0.025997911554952704,0.011146476759147449
4.4,0.026002173021610894,0.01114828059090008
4.5,0.026006539618237342,0.01115012891523507
4.6000000000000005,0.02601100855427697,0.011152020550385791
4.7,0.026015580808581254,0.011153955910117
4.800000000000001,0.026020259791994144,0.011155936437588167
4.9,0.026025045320290985,0.011157962054203153
5.0,0.026029931947770858,0.011160030454292912
5.1000000000000005,0.026034925597105213,0.011162144144162466
5.2,0.026040025206107008,0.011164302673555811
5.300000000000001,0.02604523543848939,0.011166508015815726
5.4,0.026050545824434883,0.011168755738689033
5.5,0.026055971536685492,0.011171052263621728
5.6000000000000005,0.02606150949698195,0.011173396286924518
5.7,0.026067141217696658,0.011175779982731456
5.800000000000001,0.02607289700489897,0.011178216177702918
5.9,0.026078752148426827,0.011180694412219385
6.0,0.026084717328263268,0.011183219205906642
6.1000000000000005,0.02609080174105817,0.01118579445044875
6.2,0.026096993461679173,0.011188415097648317
6.300000000000001,0.026103305153367527,0.011191086506353903
6.4,0.026109712352930168,0.011193798321736418
6.5,0.02611624364244268,0.011196562640145645
6.6000000000000005,0.02612289187422218,0.011199376435405963
6.7,0.02612963750128985,0.011202231433580418
6.800000000000001,0.02613650395700983,0.011205137551621547
6.9,0.026143476380551978,0.01120808849895704
7.0,0.02615058538205973,0.011211097229707923
7.1000000000000005,0.02615781632104212,0.011214157546467702
7.2,0.026165156063975348,0.011217263889764918
7.300000000000001,0.026172569148314513,0.011220401250232341
7.4,0.026180164061412905,0.011223615540637518
7.5,0.0261878825392531,0.01122688210127245
7.6000000000000005,0.02619568926439999,0.011230185984327816
7.7,0.026203653581085014,0.011233556535775823
7.800000000000001,0.026211664861169565,0.01123694693605446
7.9,0.026219844686755363,0.011240408638038981
8.0,0.026228173484073875,0.011243933356506204
8.1,0.02623651741976404,0.011247464452796115
8.200000000000001,0.026245089281756662,0.011251091976035216
8.3,0.02625378531316839,0.011254772015525901
8.4,0.026262589722273806,0.011258497887180318
8.5,0.026271512995721964,0.011262274027526963
8.6,0.026280539244464128,0.011266093711433816
8.700000000000001,0.026289876417863,0.011270044935569956
8.8,0.02629926843694111,0.01127401933256008
8.9,0.026308712304581268,0.01127801563350253
9.0,0.026318123929406193,0.011281998253874667
9.1,0.026327832967733528,0.011286106689385431
9.200000000000001,0.026337757044107013,0.011290306079318241
9.3,0.02634761477144462,0.011294477353343583
9.4,0.02635774868371703,0.01129876545260849
9.5,0.026368086380796848,0.011303139738468535
9.600000000000001,0.026378214309414644,0.011307425220323122
9.700000000000001,0.026388947822080983,0.011311966899874917
9.8,0.026399696859605106,0.011316515100874284
9.9,0.026410574232867967,0.011321117555618584
10.0,0.026420804953652562,0.011325446353032443
10.100000000000001,0.026432148634944627,0.011330246013116285
10.200000000000001,0.026443273283687244,0.011334952946143497
10.3,0.02645457194916075,0.01133973345490523
10.4,0.026466962960995783,0.011344976079110497
10.5,0.026476769128882152,0.01134912501367225
10.600000000000001,0.026488642890227287,0.011354148682362964
10.700000000000001,0.0264999428824169,0.011358929541143687
10.8,0.026511609298499286,0.011363865373212337
10.9,0.02652844475492849,0.011370988026093109
11.0,0.026537750899434106,0.01137492516870945
11.100000000000001,0.02654944901199448,0.01137987422857787
11.200000000000001,0.02656268124013514,0.011385472250800055
11.3,0.026575561031052845,0.011390921101742947
11.4,0.026587785958649537,0.011396092846704054
11.5,0.02660256477932344,0.01140234493167564
11.600000000000001,0.02661506654281313,0.011407633651989366
11.700000000000001,0.026626949640783805,0.011412660593612406
11.8,0.02663604131947301,0.011416506633699215
11.9,0.026662278099396197,0.01142760535095463
12.0,0.026678027481549356,0.0114342675391405
12.100000000000001,0.02668248665119255,0.01143615380583019
12.200000000000001,0.026696002811522384,0.011441871206570465
12.3,0.02671246604540003,0.01144883513190336
12.4,0.026729497927746718,0.011456039477241131
12.5,0.02674457621631841,0.01146241736884027
12.600000000000001,0.026757597385799085,0.011467925054321437
12.700000000000001,0.026772092068894714,0.011474055923446696
12.8,0.026787150649539408,0.011480425214717524
12.9,0.026801850696357928,0.011486642767706858
13.0,0.02681977625934946,0.01149422446921432
13.100000000000001,0.026837196293816284,0.011501592228236239
13.200000000000001,0.026850560748410385,0.011507244605394396
13.3,0.026863884183066285,0.011512879560307781
13.4,0.026886071132817824,0.011522263049103814
13.5,0.026899575171848104,0.011527974190035114
13.600000000000001,0.026915730216266382,0.011534806398001885
13.700000000000001,0.026933366449241266,0.01154226489987058
13.8,0.026948835416589913,0.011548806742586066
13.9,0.02697101608995225,0.011558186800955455
14.0,0.02698437344206461,0.011563835438062959
14.100000000000001,0.027003684107990315,0.011572001518311477
14.200000000000001,0.02701780027609221,0.011577970855982889
14.3,0.02703656762343321,0.011585906921860982
14.4,0.027056648643865453,0.011594398334320683
14.5,0.02706851363724565,0.011599415459126449
14.600000000000001,0.027090161465873907,0.011608569116662916
14.700000000000001,0.027110918592073405,0.011617345964710068
14.8,0.027128517504255364,0.01162478726908183
14.9,0.02715571844750018,0.011636288325603403
15.0,0.027168607229457284,0.011641737832102945
15.100000000000001,0.02719405121047489,0.01165249560216734
15.200000000000001,0.0272065917997009,0.011657797692311485
15.3,0.027234660075478975,0.011669664565872928
15.4,0.027249363230280002,0.011675880724211782
15.5,0.02726759866591597,0.011683590126683392
15.600000000000001,0.02728116111288086,0.011689323839110585
15.700000000000001,0.027309238711742425,0.011701193792608306
15.8,0.02732639254168999,0.011708445505346665
15.9,0.027354674498578077,0.011720401324682016
16.0,0.027371913638121945,0.011727688779100593
16.1,0.027393760619632383,0.011736923918304533
16.2,0.027411776695519467,0.01174453951228795
16.3,0.0274324165458575,0.01175326404054062
16.400000000000002,0.027447035565131242,0.011759443438942831
16.5,0.02748728802309394,0.011776457530515256
16.6,0.027513911878774486,0.011787710656411477
16.7,0.027526848064613068,0.011793178298938308
16.8,0.02754378872751029,0.01180033838023621
16.900000000000002,0.027548793903317555,0.011802453827737185
17.0,0.027576506951765146,0.011814166616259758
17.1,0.02761454194226948,0.011830241410382778
17.2,0.02765559505314223,0.011847591090308982
17.3,0.027671587215525036,0.011854349438017907
17.400000000000002,0.02767747337588347,0.011856836924948762
17.5,0.027688593356254242,0.011861536181389836
17.6,0.027736165587769496,0.011881639430173485
17.7,0.02771659679224277,0.011873370089159643
17.8,0.027760229960980872,0.01189180828721386
17.900000000000002,0.02779732119376118,0.011907481424379166
18.0,0.027816688149152453,0.011915664830232283
18.1,0.02786169676940075,0.011934682392082887
18.2,0.0277806651479926,0.011900443375892697
18.3,0.02788874023894777,0.011946108710555261
18.400000000000002,0.027957117382396333,0.011974997857072567
18.5,0.02795145582790218,0.011972605939544878
18.6,0.02804733008374815,0.012013109524066376
18.7,0.02756357548750244,0.011808701233515097
18.8,0.02798573619235857,0.011987088651546213
18.900000000000002,0.028163888482959715,0.012062346362377812
19.0,0.02840981190872597,0.012166211531196899
19.1,0.027967564152164285,0.011979411418040828
19.200000000000003,0.028525574148052787,0.012215094838029279
19.3,0.02817147927979883,0.012065552688770059
19.400000000000002,0.028160985495210695,0.012061120144112
19.5,0.02832875563622807,0.012131980353308624
19.6,0.028342601385625284,0.012137827794651735
19.700000000000003,0.028319425034691464,0.012128039738867754
19.8,0.028352704355414263,0.01214209450739035
19.900000000000002,0.02837731982611342,0.01215249000215037
20.0,0.02840564013440773,0.012164449799424269
20.1,0.028418579915609532,0.012169914219298658
20.200000000000003,0.028463926209709316,0.012189063242392394
20.3,0.028307047238567192,0.012122812140538706
20.400000000000002,0.028755706655007037,0.012312257320599146
20.5,0.028172045318851733,0.012065791780764373
20.6,0.02824108776379526,0.01209495396844449
20.700000000000003,0.02818420874627851,0.012070929518354463
20.8,0.02949307313601193,0.01262342884727266
20.900000000000002,0.028826427795319277,0.012342111585456252
21.0,0.02913464901766037,0.012472200320930662
21.1,0.026946996191229016,0.011548028937389791
21.200000000000003,0.028635098207825945,0.012261338863086928
21.3,0.0282722417646355,0.012108112172148662
21.400000000000002,0.029035718313264545,0.012430449589577295
21.5,0.02792276061854461,0.01196048246333008
21.6,0.03207803091272221,0.013712533641680994
21.700000000000003,0.03126305102095469,0.013369457752423581
21.8,0.0279548013576451,0.011974019374716214
21.900000000000002,0.02654996476104209,0.011380092422557135
22.0,0.03019697942598759,0.012920272179632023
22.1,0.02993299912544147,0.012808973193957
22.200000000000003,0.02989612834191227,0.012793425518066443
22.3,0.029737119845392044,0.012726368421554222
22.400000000000002,0.028305776667339227,0.012122275528039966
22.5,0.02922177239966503,0.012508964803192649
22.6,0.028757511063837397,0.012313019060345333
22.700000000000003,0.028757764402232162,0.0123131260082433
22.8,0.0313500148325828,0.01340607916645705
22.900000000000002,0.030081697476617323,0.012871670682088953
23.0,0.030749126493424823,0.013152975431439956
23.1,0.02896800218665927,0.012401869718862531
23.200000000000003,0.02850301695630249,0.012205569969053583
23.3,0.031057188454382864,0.013282754460395335
23.400000000000002,0.02962857505551249,0.012680586942874297
23.5,0.029927906666908314,0.012806825838634005
23.6,0.030438080033860053,0.013021899746900307
23.700000000000003,0.02958119916879831,0.012660603465293255
23.8,0.030105238771861362,0.012881595853870127
23.900000000000002,0.029742361833682222,0.01272857923900489
24.0,0.030696084722670977,0.013130626306439193
24.1,0.030508143250927502,0.01305142799778312
24.200000000000003,0.031045105679468842,0.013277665011160747
24.3,0.030392574698988862,0.013002720377853638
24.400000000000002,0.030852002369667255,0.013196318854941854
24.5,0.03184492065729174,0.013614430659724236
24.6,0.03136031630006326,0.01341041702273754
24.700000000000003,0.031115020138711796,0.013307113222757813
24.8,0.03950306979282609,0.016825776199586476
24.900000000000002,0.029941382995768647,0.012812508427611701
25.0,0.030323863014359253,0.012973758503292094
25.1,0.03096626173587432,0.013244453274123403
25.200000000000003,0.03034799113076422,0.012983928689091291
25.3,0.031691991045412725,0.013550059156308355
25.400000000000002,0.029229020552390125,0.012512023251559066
25.5,0.030079095285703975,0.012870573566603087
25.6,0.030831359895988102,0.013187622163125808
25.700000000000003,0.03107994643092732,0.013292340305551518
25.8,0.030914816173548652,0.013222781293056714
25.900000000000002,0.031724831712620714,0.013563883334142228
26.0,0.03646290983309969,0.01555376533674869
26.1,0.02948239229764506,0.012618923082883775
26.200000000000003,0.03179558652804419,0.013593665860786433
26.3,0.031246684073644733,0.013362565106263916
26.400000000000002,0.031763264662416066,0.013580061007326415
26.5,0.03176678528120228,0.013581542919656025
26.6,0.03196524456685725,0.013665070985956818
26.700000000000003,0.032831855694698424,0.014029624435619418
26.8,0.03195461786702428,0.013660598799625993
26.900000000000002,0.031005745294185195,0.013261085402439345
27.0,0.0314305211039379,0.013439978487123291
27.1,0.03058132114592955,0.013082266791109676
27.200000000000003,0.031907797140041716,0.013640894013858424
27.3,0.030977449405310956,0.013249166053696856
27.400000000000002,0.03159811000698853,0.013510537794818488
27.5,0.03195531690195866,0.013660892985926999
27.6,0.032136779335168716,0.01373725404923673
27.700000000000003,0.03359803519115818,0.01435167508362398
27.8,0.03186910794067398,0.013624610755958517
27.900000000000002,0.03300784599273125,0.0141036201240812
28.0,0.03237398611523376,0.013837052604739124
28.1,0.031754921689147564,0.01357654923090773
28.200000000000003,0.03224373108922063,0.01378225404455886
28.3,0.03294153020675114,0.014075738918224034
28.400000000000002,0.03199898064777086,0.013679268319034772
28.5,0.032390109108806145,0.013843835100770141
28.6,0.03247577537153382,0.013879870744042587
28.700000000000003,0.03343084521679635,0.014281419961267973
28.8,0.03390718487044658,0.014481553353816451
28.900000000000002,0.035612040105979806,0.015197090933549331
29.0,0.03099966112872712,0.013258522538659046
29.1,0.029952957459472927,0.012817388994171963
29.200000000000003,0.030554670664235197,0.01307103593862196
29.3,0.030918692310470876,0.013224414193937934
29.400000000000002,0.03944464524995797,0.016801366296058443
29.5,0.03593070881868906,0.01533070735507706
29.6,0.036923921722361794,0.015746893719596124
29.700000000000003,0.036106012733283906,0.015404194009202779
29.8,0.03161663077400226,0.013518334818323456
29.900000000000002,0.03337050382322725,0.014256061032334576
30.0,0.03426021649017072,0.014629819578080273
30.1,0.03428239440749167,0.014639132170494151
30.200000000000003,0.033866681996665704,0.014464539719135827
30.3,0.03381036060155319,0.014440880249486933
30.400000000000002,0.03187581573932361,0.013627433934255254
30.5,0.03341009850809277,0.01427270116639862
30.6,0.03356070218662742,0.014335988317465935
30.700000000000003,0.03464849734484174,0.014792831347004152
30.8,0.03341632913712539,0.014275319603797626
30.900000000000002,0.0360822966899186,0.015394253072155917
31.0,0.03537569718027618,0.015097966803485584
31.1,0.03466431833071522,0.01479947216690452
31.200000000000003,0.03592257111359396,0.015327295761744257
31.3,0.034653376687082,0.014794879449735662
31.400000000000002,0.03631714196123148,0.01549268197921572
31.5,0.03801672266238838,0.016204350142012307
31.6,0.036065890595677844,0.015387376077313381
31.700000000000003,0.034713016574911375,0.014819912497800186
31.8,0.035099149142058625,0.014981951592862234
31.900000000000002,0.036356005362150466,0.015508968348912624
32.0,0.03678473760306124,0.01568859537107957
32.1,0.03414790265881255,0.014582655503643887
32.2,0.03653667702065454,0.015584673864388795
32.300000000000004,0.037000329729139525,0.015778894479227104
32.4,0.03389009022232041,0.01447437265826098
32.5,0.03525055238327383,0.015045470902929277
32.6,0.03558006580006911,0.015183681974929584
32.7,0.03621699761161025,0.015450711970000666
32.800000000000004,0.03684374204271511,0.015713310794124614
32.9,0.03284633914108055,0.01403571452347383
33.0,0.035025872806555176,0.014951206098904934
33.1,0.03514500213184026,0.015001189614070404
33.2,0.03581587247393992,0.015282561707006079
33.300000000000004,0.03219219961597086,0.013760572737671634
33.4,0.044205311245842316,0.018785897875745496
33.5,0.03875544126798839,0.016513311744246965
33.6,0.033277728008959444,0.014217068403016153
33.7,0.038533649430382885,0.016420572633450505
33.800000000000004,0.03785682144933691,0.01613744412568752
33.9,0.039198073347991524,0.016698332892616314
34.0,0.03566502093792838,0.01521930841801787
34.1,0.035634800536532917,0.015206635647584777
34.2,0.038064478045916464,0.016224329995925536
34.300000000000004,0.03583370414860506,0.015290038065940249
34.4,0.039251241945365944,0.01672055217723909
34.5,0.03708244398535563,0.015813282468781678
34.6,0.034696906005620705,0.014813150443296594
34.7,0.04365130625850677,0.01855542101964689
34.800000000000004,0.037687751908340374,0.016066690676383024
34.9,0.041744628578885425,0.017761269835277555
35.0,0.036683012036734144,0.015645981877652933
35.1,0.03020621657263586,0.012924166215348606
35.2,0.03557624050887846,0.015182077747522185
35.300000000000004,0.037676170485258266,0.01606184357647642
35.4,0.035213198569141076,0.015029800447119384
35.5,0.04039054214797046,0.01719639551190031
35.6,0.03904246214430489,0.01663329606357214
35.7,0.03844978037099293,0.0163854988151497
35.800000000000004,0.041904190796853556,0.01782778487396824
35.9,0.037987389093561516,0.01619207713445444
36.0,0.037775971199997004,0.016103610764323286
36.1,0.03463859974159652,0.014788676800755303
36.2,0.0391195225625518,0.01666550425011335
36.300000000000004,0.03945640701746787,0.016806280498897947
36.4,0.04382538948196655,0.01862785620770916
36.5,0.04053871597283363,0.01725824391386613
36.6,0.041163415222372816,0.017518899308317012
36.7,0.041610904020624444,0.017705517625039156
36.800000000000004,0.04534528683806183,0.019259765470794655
36.9,0.03449205091955759,0.014727157877504126
37.0,0.03830741185958551,0.016325954195076424
37.1,0.040146945269246635,0.017094697963683243
37.2,0.033119186727252344,0.014150427184726234
37.300000000000004,0.04798307732408575,0.020354269781193517
37.4,0.03736092253806826,0.015929884060755392
37.5,0.04004053880782547,0.017050267603989148
37.6,0.036582323300554095,0.015603798601058396
37.7,0.04090126481933481,0.017409536256187946
37.800000000000004,0.03600940175254406,0.015363696635780745
37.9,0.042294840244991194,0.01799058784925479
38.0,0.04005364697252476,0.017055741205747904
38.1,0.03450493070865091,0.014732564962561302
38.2,0.03646113383581813,0.015553021164938183
38.300000000000004,0.049018329390542244,0.020783076643151276
38.400000000000006,0.02956205766559704,0.012652529185674059
38.5,0.03739315850684552,0.015943379542931117
38.6,0.035700068023114116,0.015234004770472138
38.7,0.03548621236807748,0.01514432058115941
38.800000000000004,0.04997378758953444,0.02117845712010955
38.900000000000006,0.0376621849530001,0.016055990227820928
39.0,0.04266384923240548,0.018144316140840448
39.1,0.037634965549094776,0.0160445978959666
39.2,0.0379298046418463,0.016167983100544774
