Frequency (Hz),Power,Log Power
0.0,0.8161791067682839,0.25915867526740766
0.1,0.8161801614817713,0.2591589274760763
0.2,0.816183311358432,0.25915968069037476
0.30000000000000004,0.8161885603223659,0.2591609358460431
0.4,0.8161959157763594,0.25916269470890707
0.5,0.8162053786838579,0.25916495750322754
0.6000000000000001,0.8162169483134084,0.25916772404622235
0.7000000000000001,0.8162306274022383,0.2591709949827864
0.8,0.8162464282002262,0.2591747732306712
0.9,0.8162643458603633,0.2591790576176477
1.0,0.8162843956475747,0.25918385177875547
1.1,0.8163065809459579,0.2591891565062789
1.2000000000000002,0.8163309131110011,0.25919497449666656
1.3,0.8163573817269036,0.25920130323885265
1.4000000000000001,0.8163860122577526,0.25920814879892307
1.5,0.8164168093519858,0.2592155122638515
1.6,0.8164497990850126,0.2592233998416558
1.7000000000000002,0.816484955315801,0.2592318052538466
1.8,0.8165223252451549,0.2592407397551314
1.9000000000000001,0.8165618914757039,0.259250199153578
2.0,0.8166036907822238,0.2592601922066105
2.1,0.8166477296254178,0.25927072042190663
2.2,0.8166940160947438,0.2592817856943874
2.3000000000000003,0.8167425696140478,0.25929339262629036
2.4000000000000004,0.8167934022573107,0.25930554406039863
2.5,0.8168465257142469,0.25931824274527987
2.6,0.8169019827363044,0.2593314988518091
2.7,0.8169597566836055,0.2593453083516261
2.8000000000000003,0.8170198765210993,0.25935967811497884
2.9000000000000004,0.8170823676691896,0.25937461416188257
3.0,0.8171472449839297,0.25939011998446304
3.1,0.8172145275392574,0.2594062000801384
3.2,0.8172842399478724,0.259422860267043
3.3000000000000003,0.8173564041802726,0.2594401057286965
3.4000000000000004,0.8174310345319064,0.25945793981140314
3.5,0.8175081600565354,0.2594763693850341
3.6,0.8175877946494569,0.25949539769389357
3.7,0.8176699823787328,0.2595150351883988
3.8000000000000003,0.8177547400773425,0.2595352858075819
3.9000000000000004,0.8178420656476797,0.2595561489645052
4.0,0.8179320201504685,0.25957763915793836
4.1000000000000005,0.8180246154367493,0.2595997591257604
4.2,0.8181198756742586,0.2596225145446419
4.3,0.8182178409499843,0.25964591488970973
4.4,0.8183185308651278,0.2596699647382856
4.5,0.8184219813890371,0.2596946725729768
4.6000000000000005,0.8185282012054294,0.2597200403552257
4.7,0.8186372464275247,0.2597460813692681
4.800000000000001,0.8187491373707766,0.2597728003449925
4.9,0.8188638995247558,0.25980020324338526
5.0,0.818981573807178,0.2598282997042769
5.1000000000000005,0.8191021916653048,0.2598570971007085
5.2,0.8192257757832374,0.259886600708393
5.300000000000001,0.8193523771486547,0.2599168225544622
5.4,0.819482015393176,0.2599477671747386
5.5,0.8196147455536902,0.2599794475504503
5.6000000000000005,0.8197505632204252,0.2600118624680147
5.7,0.8198895593364581,0.2600450334652539
5.800000000000001,0.8200317291838596,0.26007895924295993
5.9,0.8201771316018155,0.2601136536631002
6.0,0.8203257906156656,0.2601491222732431
6.1000000000000005,0.8204777588543584,0.2601853774386924
6.2,0.8206330555355402,0.26022242354641834
6.300000000000001,0.8207917416517571,0.2602602749416879
6.4,0.8209538435267949,0.2602989376918636
6.5,0.8211194076702544,0.260338422671432
6.6000000000000005,0.8212884464499489,0.26037873260499345
6.7,0.8214610853865102,0.26041989719065106
6.800000000000001,0.821637282354902,0.2604619061420634
6.9,0.8218171023860297,0.26050477471626315
7.0,0.8220005879513038,0.2605485127818563
7.1000000000000005,0.8221878560186267,0.2605931479534985
7.2,0.8223788195802868,0.2606386592191888
7.300000000000001,0.8225735888169657,0.26068507255760154
7.4,0.8227722667046686,0.26073241221414484
7.5,0.8229748144642287,0.26078066864687643
7.6000000000000005,0.8231812760969855,0.260829852031076
7.7,0.8233918001828021,0.2608799974399116
7.800000000000001,0.8236062606894108,0.26093107452476827
7.9,0.8238249187253363,0.26098314513220067
8.0,0.8240476994518815,0.2610361910855331
8.1,0.8242745936049404,0.26109020982119363
8.200000000000001,0.8245056722552689,0.2611452178926835
8.3,0.8247411429828999,0.26120126432800533
8.4,0.8249810319235391,0.261258354943864
8.5,0.8252251739290903,0.2613164500321907
8.6,0.8254738148757695,0.2613756076848025
8.700000000000001,0.8257270640309998,0.26143585345844633
8.8,0.8259845140722007,0.261497090021112
8.9,0.8262467268413171,0.26155945056259783
9.0,0.8265136755096759,0.2616229282184284
9.1,0.8267852738263685,0.2616875019924813
9.200000000000001,0.8270620324587722,0.2617532927806706
9.3,0.8273429862022987,0.2618200706337553
9.4,0.8276288323907312,0.2618880008005111
9.5,0.8279197958829841,0.26195713616279853
9.600000000000001,0.8282154829900364,0.26202738262221426
9.700000000000001,0.8285165832863933,0.26209890342009207
9.8,0.828822642197954,0.2621715899763799
9.9,0.8291335792467652,0.2622454225958364
10.0,0.8294504802277473,0.2623206584496296
10.100000000000001,0.8297716504399948,0.26239689457102816
10.200000000000001,0.830098302652116,0.2624744182292022
10.3,0.8304308762752683,0.26255333298862576
10.4,0.8307689605078962,0.2626335406383645
10.5,0.8311106373179168,0.26271458554967453
10.600000000000001,0.8314613060745586,0.2627977476056311
10.700000000000001,0.8318140237415032,0.26288137950501383
10.8,0.832175647253855,0.26296710632771425
10.9,0.8325402264360036,0.2630535166978513
11.0,0.8329116811665752,0.26314153899053605
11.100000000000001,0.8332880410585225,0.2632307054502167
11.200000000000001,0.8336737716919577,0.26332207301539684
11.3,0.8340635330252847,0.26341437580749855
11.4,0.8344582376654014,0.26350782927925664
11.5,0.8348611700424795,0.26360321007836673
11.600000000000001,0.8352662625112763,0.26369908109527634
11.700000000000001,0.8356839564516978,0.26379791227707516
11.8,0.8361048373723062,0.2638974747913824
11.9,0.8365246352843633,0.26399675838035985
12.0,0.8369613774750414,0.2641000252629127
12.100000000000001,0.8373983993708837,0.26420333370860505
12.200000000000001,0.8378343579095766,0.2643063663060403
12.3,0.8382878913566488,0.2644135265477655
12.4,0.8387448442660976,0.2645214680007541
12.5,0.8392159181045425,0.264632717023211
12.600000000000001,0.8396883500378558,0.2647442581604009
12.700000000000001,0.8401687899421943,0.2648576606065225
12.8,0.8406515070490971,0.26497157074618427
12.9,0.841142776500781,0.2650874683748016
13.0,0.8416462923034458,0.26520622300990315
13.100000000000001,0.8421546287616548,0.2653260816694139
13.200000000000001,0.8426682786983648,0.2654471595828932
13.3,0.843189778861359,0.26557005343342927
13.4,0.8437145970633555,0.2656936940963969
13.5,0.8442523536710671,0.2658203463859164
13.600000000000001,0.8447972824238899,0.2659486501906617
13.700000000000001,0.8453451204191529,0.26607760078069004
13.8,0.845905339658169,0.2662094260949895
13.9,0.8464694701162442,0.26634213133730306
14.0,0.8470375633498342,0.2664757278114751
14.100000000000001,0.8476210343038659,0.2666128978428032
14.200000000000001,0.8482147066293678,0.2667524216935989
14.3,0.8488093629856972,0.26689213188836464
14.4,0.8494068992515128,0.267032473440528
14.5,0.8500213575416032,0.2671767421375678
14.600000000000001,0.8506503521968344,0.26732437420653793
14.700000000000001,0.851269090932244,0.26746955014845597
14.8,0.8518836157881153,0.2676136893603566
14.9,0.8525007013157266,0.26775838106566674
15.0,0.8532871643409442,0.26794271787585827
15.100000000000001,0.8538734544910817,0.2680800858538349
15.200000000000001,0.8545553917091586,0.2682398093305072
15.3,0.8552069419134412,0.268392360699498
15.4,0.8558851040757118,0.268551085993583
15.5,0.8565945396005672,0.26871706882286855
15.600000000000001,0.8572909757712145,0.26887994858219516
15.700000000000001,0.858006290272495,0.2690471799622569
15.8,0.858727196260921,0.26921565343381737
15.9,0.8594507415752651,0.269384678018787
16.0,0.8602034448435152,0.2695604442938172
16.1,0.8609439404277149,0.2697332905248532
16.2,0.8617133635064143,0.26991281615657503
16.3,0.8624760507326685,0.2700906969362929
16.400000000000002,0.8632476939957318,0.27027059240836704
16.5,0.8640447064795137,0.2704563240826226
16.6,0.864819180701683,0.27063672749560697
16.7,0.8656155757361701,0.27082215895157896
16.8,0.8664248986065854,0.27101051942870974
16.900000000000002,0.8672752688234246,0.2712083452221976
17.0,0.8680976592219217,0.2713995762583957
17.1,0.8689280528581411,0.2715925828940137
17.2,0.8697650157830277,0.271787029658824
17.3,0.8706452189417518,0.27199142829846795
17.400000000000002,0.8715229367782006,0.27219515405539046
17.5,0.8723573353336532,0.2723887364714952
17.6,0.8732257568818211,0.2725901207066371
17.7,0.874164647058833,0.2728077413906697
17.8,0.8750534484145907,0.2730136518081035
17.900000000000002,0.8759045845533191,0.2732107447808819
18.0,0.876939787819092,0.273450340688821
18.1,0.8778147118950705,0.273652737253064
18.2,0.8787950405309192,0.27387940510238773
18.3,0.8797312661204828,0.2740957652300548
18.400000000000002,0.8806574953141659,0.2743097091924741
18.5,0.8816262295898984,0.2745333584387518
18.6,0.8827345748126081,0.27478909812641034
18.7,0.8835900626024411,0.27498639053671337
18.8,0.8845946977057919,0.2752179648993322
18.900000000000002,0.8855492027617753,0.2754378696555235
19.0,0.8865939536967646,0.2756784382441541
19.1,0.8877934707865704,0.27595447968452697
19.200000000000003,0.8888852372661163,0.2762055723548092
19.3,0.889641140566849,0.27637933567093476
19.400000000000002,0.8907277051297297,0.2766289880335197
19.5,0.8918904497798177,0.2768959849021543
19.6,0.8928132936875144,0.2771077774502001
19.700000000000003,0.8934983912073483,0.2772649404628826
19.8,0.895693981256085,0.27776823122021227
19.900000000000002,0.8962764996508427,0.2779016629163261
20.0,0.8980602349609283,0.2783099906497855
20.1,0.8979667617315236,0.2782886025470245
20.200000000000003,0.9001135572329265,0.2787795566401589
20.3,0.902086888287284,0.27923035184525263
20.400000000000002,0.9015162297795816,0.2791000365441485
20.5,0.9034162746077424,0.27953377830008114
20.6,0.9045702451243068,0.27979699511577477
20.700000000000003,0.9055671906294227,0.28002426667687286
20.8,0.9085031653533026,0.2806928845860516
20.900000000000002,0.9072998974026792,0.280418985414667
21.0,0.9113027422515027,0.28132948290840676
21.1,0.9100271701446867,0.2810395451325355
21.200000000000003,0.9134242636368135,0.28181127683720525
21.3,0.9132574771406459,0.28177341925724736
21.400000000000002,0.9155539837301886,0.2822943956852002
21.5,0.9146763400600416,0.28209537067757845
21.6,0.9183670102971985,0.2829316973597168
21.700000000000003,0.9187657270071526,0.2830219524952327
21.8,0.9209143286411101,0.28350799608079613
21.900000000000002,0.9198199881681702,0.28326050901067906
22.0,0.9230349622771263,0.28398718012303636
22.1,0.923796527760315,0.284159136545944
22.200000000000003,0.9264879213154172,0.28476629042012913
22.3,0.9278200278176062,0.28506648777533694
22.400000000000002,0.9292446754742842,0.28538731031355374
22.5,0.9287705777641269,0.28528057251863814
22.6,0.930441419404698,0.28565662719016466
22.700000000000003,0.9316819142630516,0.2859356136666671
22.8,0.9343621438217462,0.2865377842971991
22.900000000000002,0.9361509690733686,0.28693921788934684
23.0,0.9370377952832205,0.28713809471126706
23.1,0.9391719102435413,0.2876163115855202
23.200000000000003,0.9397675955633857,0.28774970002790534
23.3,0.9369938358717843,0.28712823865864134
23.400000000000002,0.9426086889567505,0.28838532692913293
23.5,0.9437127691159216,0.28863208774847315
23.6,0.9451193328387862,0.2889462503936624
23.700000000000003,0.9470953207721314,0.28938721308758236
23.8,0.9476924210140987,0.28952037430685956
23.900000000000002,0.9500087750775135,0.2900365657005527
24.0,0.9512184228566839,0.2903058878116332
24.1,0.9537532565817175,0.29086971492451325
24.200000000000003,0.9550898867653527,0.2911667292146424
24.3,0.9637659026464608,0.2930897149945052
24.400000000000002,0.9576025486748799,0.29172452176808705
24.5,0.9595238475025973,0.2921505532317092
24.6,0.9606642642532175,0.29240323330813234
24.700000000000003,0.9604554174476311,0.2923569704941008
24.8,0.9624103898190405,0.2927898345405288
24.900000000000002,0.9687580260481846,0.2941923416283211
25.0,0.9687124039711288,0.2941822775952464
25.1,0.9696576334306297,0.2943907435049386
25.200000000000003,0.9714161261632945,0.29477830475729344
25.3,0.9728700953268444,0.2950984898441406
25.400000000000002,0.9747491167913434,0.29551192825913963
25.5,0.9773540421624479,0.29608443602665935
25.6,0.9771938902135012,0.29604925976433005
25.700000000000003,0.9799675359624931,0.2966580695201504
25.8,0.9818170744721737,0.29706356578315285
25.900000000000002,0.9842334976034968,0.2975927770691223
26.0,0.9801185532364131,0.29669119302670555
26.1,0.9856854766698829,0.29791045938383687
26.200000000000003,0.9887355164853545,0.2985770297968661
26.3,0.9908098597980725,0.29902978298884897
26.400000000000002,0.9924458904728134,0.2993865359461102
26.5,0.9943228911927315,0.29979547419162267
26.6,0.9955496774663729,0.30006254363644264
26.700000000000003,0.9978290592547711,0.30055832583273445
26.8,1.0002926768305285,0.3010935449804812
26.900000000000002,1.0015544068904083,0.30136739973272453
27.0,1.003923246393775,0.30188108330997404
27.1,1.003715561343029,0.3018360710342074
27.200000000000003,1.0061394575127354,0.3023611198723711
27.3,1.0072657465418051,0.3026048735420477
27.400000000000002,1.0111371701897278,0.30344169278712624
27.5,1.0122264978756028,0.3036768636807122
27.6,1.012852453313908,0.30381194127708294
27.700000000000003,1.015474905000368,0.304377395052844
27.8,1.017763577414844,0.30487027833336927
27.900000000000002,1.0215965103199973,0.30569447923334786
28.0,1.0227328781942633,0.30593853369221313
28.1,1.0241008258135442,0.30623214206293803
28.200000000000003,1.0273639046498801,0.306931710013464
28.3,1.0285137510706432,0.3071779560846431
28.400000000000002,1.029559361470332,0.30740175828054306
28.5,1.030554075597378,0.3076145596575424
28.6,1.0346180055249234,0.308482883504656
28.700000000000003,1.0358508352579392,0.30874595451071896
28.8,1.0390524312092728,0.30942839316024306
28.900000000000002,1.040693577433559,0.30977779765068875
29.0,1.0418579637120537,0.31002552828882973
29.1,1.044112169449873,0.3105047237701613
29.200000000000003,1.046990596052735,0.31111584750286403
29.3,1.051282224755582,0.3120254166930089
29.400000000000002,1.0388936037023209,0.30939456342866356
29.5,1.0503765179146205,0.31183361941570126
29.6,1.0493103889380915,0.31160774170725136
29.700000000000003,1.0505977143474627,0.31188046896161525
29.8,1.056519642571218,0.3131328619704313
29.900000000000002,1.0734518277392897,0.3166939499049886
30.0,1.0542084399617568,0.31264450923803866
30.1,1.0664321406464072,0.31522114809984547
30.200000000000003,1.059865202670043,0.3138388011206019
30.3,1.063207929610709,0.3145429982746837
30.400000000000002,1.070057684440213,0.3159824477202133
30.5,1.0716662900086098,0.31631979929716575
30.6,1.0735974900468164,0.31672445850595204
30.700000000000003,1.0747314275407926,0.31696188558490657
30.8,1.0752772538140822,0.3170761259916794
30.900000000000002,1.077938838930456,0.3176327605907872
31.0,1.0807447953933824,0.318218816997279
31.1,1.0834399678487614,0.3187809912307196
31.200000000000003,1.0820736231651245,0.3184960823162255
31.3,1.0843295452195065,0.3189663846638238
31.400000000000002,1.0838136774325644,0.31885888426259634
31.5,1.0861223837873326,0.31933978301880755
31.6,1.0888410706028124,0.3199053979573701
31.700000000000003,1.0920349345936342,0.32056893247753376
31.8,1.0971329147188313,0.32162595659775084
31.900000000000002,1.0967045238605073,0.3215372322305145
32.0,1.100219107743735,0.3222646053625754
32.1,1.1034386151179068,0.3229298424739756
32.2,1.1051643297854392,0.3232860026578965
32.300000000000004,1.1082549439085891,0.3239231274313484
32.4,1.1086349970582463,0.3240014102362039
32.5,1.1116380628308955,0.3246194816716181
32.6,1.11281192153904,0.32486083871193744
32.7,1.1136970899133753,0.32504274947806056
32.800000000000004,1.1159232806049646,0.3254999169482378
32.9,1.1149473709985271,0.32529956472793614
33.0,1.120945481455719,0.32652950519395546
33.1,1.1226107613766418,0.32687036171910583
33.2,1.12761413095056,0.32789286610683943
33.300000000000004,1.1331753866622964,0.3290265639952686
33.4,1.1224981844625284,0.32684732743036343
33.5,1.1268775831148357,0.3277424938953477
33.6,1.1296193604570786,0.3283019863375199
33.7,1.1336572836814764,0.3291246626240805
33.800000000000004,1.1320140772297727,0.3287900679169301
33.9,1.136107378743181,0.3296230802027308
34.0,1.1369826052357253,0.3298009870770855
34.1,1.1457630688438898,0.33158176629052066
34.2,1.1456724080223621,0.33156341648904636
34.300000000000004,1.1464087389356348,0.3317124278635647
34.4,1.142120182554544,0.3308438330486174
34.5,1.1480929514195783,0.3320530700513519
34.6,1.1555545534435445,0.3335590185885115
34.7,1.1549171362629174,0.3334305747493393
34.800000000000004,1.165817497809362,0.33562185809094663
34.9,1.1430970859014817,0.3310418457577514
35.0,1.176582731407314,0.3377751792401786
35.1,1.1482098953111557,0.3320767127453744
35.2,1.1690594278174629,0.33627145096284844
35.300000000000004,1.1546130565145716,0.3333692872534514
35.4,1.1551778435463222,0.3334831136076443
35.5,1.1690334394529236,0.3362662474765891
35.6,1.1697311912061172,0.33640593227839716
35.7,1.1584650186051861,0.3341450146092225
35.800000000000004,1.1567407610795368,0.33379794630849463
35.9,1.1631916026165934,0.33509498835901114
36.0,1.1733497352139568,0.337129618567182
36.1,1.1693060972580431,0.3363208369246326
36.2,1.1687319454724407,0.3362058766816556
36.300000000000004,1.1753767806213742,0.33753448868056357
36.4,1.1948764687229207,0.34141008245437
36.5,1.161348719620197,0.33472484313896966
36.6,1.1621957899511646,0.3348950173904042
36.7,1.1697390448083644,0.3364075042565113
36.800000000000004,1.1626214824531662,0.3349805127505821
36.9,1.179301844818573,0.33831738649241505
37.0,1.1687078475106838,0.3362010509723359
37.1,1.174271012377591,0.33731367583329935
37.2,1.193080436442355,0.3410545607529555
37.300000000000004,1.1835803972036354,0.3391691868317141
37.4,1.1819731470049342,0.3388494015321853
37.5,1.1835969729313127,0.3391724835822025
37.6,1.1878940209066975,0.3400262814410426
37.7,1.1898659496137884,0.3404175307648446
37.800000000000004,1.1886148251165092,0.3401693366956749
37.9,1.1816365622109435,0.33878240336839266
38.0,1.1868803241083703,0.3398250171476203
38.1,1.196464185168404,0.3417241261943087
38.2,1.1942884446509545,0.34129371607659686
38.300000000000004,1.182671974420273,0.33898847212529626
38.400000000000006,1.1885138892528662,0.34014930717793646
38.5,1.195339590293946,0.341501709445292
38.6,1.1873223457900677,0.3399127897509417
38.7,1.1916152296025488,0.3407643096990509
38.800000000000004,1.1884160957959882,0.34012990035222046
38.900000000000006,1.190768602327249,0.3405965080766613
39.0,1.1878607091941367,0.3400196690535389
39.1,1.189877369478493,0.3404197955478987
39.2,1.1887054477070227,0.3401873188804585
39.300000000000004,1.201015628941193,0.3426231263965191
39.400000000000006,1.1933144717033213,0.3411009041509546
39.5,1.1896188934283745,0.34036853178802207
39.6,1.1785282503583323,0.3381631960804417
39.7,1.2066510068602128,0.3437336526996466
39.800000000000004,1.196680719277105,0.34176693815279147
39.900000000000006,1.1886968583109427,0.34018561452382884
40.0,1.1956762146980209,0.3415682972818851
40.1,1.1896348234950027,0.34037169138574364
40.2,1.1976117478010522,0.3419509680322428
40.300000000000004,1.1921442423517377,0.3408691271829545
40.400000000000006,1.2088955039804685,0.3441751712276646
40.5,1.1968555879444267,0.341801509164389
40.6,1.1818391359385245,0.33882272748531966
40.7,1.1926161153924504,0.3409626017821624
40.800000000000004,1.1966950100616391,0.3417697635013378
40.900000000000006,1.1870634754747773,0.3398613878151344
41.0,1.1810680891403194,0.33866922370632063
41.1,1.187118560481889,0.3398723261411707
41.2,1.1953463003790357,0.34150303687020933
41.300000000000004,1.1944897414571531,0.34133355499691187
41.400000000000006,1.191590172129929,0.34075934423606563
41.5,1.1655636113400067,0.33557094523427633
41.6,1.1809682393046326,0.338649341142582
