Frequency (Hz),Power,Log Power
0.0,0.5514007535754146,0.19072399806186302
0.1,0.5514012381588044,0.19072413371466512
0.2,0.5514026381168353,0.1907245256144254
0.30000000000000004,0.5514049738365575,0.19072517946752457
0.4,0.5514082542378954,0.1907260977697844
0.5,0.5514124680119357,0.19072727735376777
0.6000000000000001,0.5514176139506268,0.19072871787917117
0.7000000000000001,0.5514236822488917,0.1907304165986347
0.8,0.5514306980105942,0.19073238053649336
0.9,0.5514386373878581,0.1907346030134093
1.0,0.5514475189553264,0.19073708922498633
1.1,0.551457314303978,0.19073983121424892
1.2000000000000002,0.5514680389978852,0.190742833333123
1.3,0.5514796871847512,0.1907460939380229
1.4000000000000001,0.5514922660054976,0.1907496150220169
1.5,0.5515057629460809,0.19075339307586237
1.6,0.5515201763531685,0.1907574276300595
1.7000000000000002,0.5515355130907335,0.1907617205987726
1.8,0.5515517535726595,0.19076626649199308
1.9000000000000001,0.5515689045228684,0.19077106718384873
2.0,0.5515869837128637,0.1907761276401939
2.1,0.5516059509770025,0.1907814366095849
2.2,0.5516258219129929,0.19078699844864982
2.3000000000000003,0.5516466126990023,0.19079281767582293
2.4000000000000004,0.5516682850879946,0.1907988835758422
2.5,0.5516908473300985,0.1908051984474553
2.6,0.5517142934796379,0.1908117606157221
2.7,0.5517386373717648,0.19081857394155918
2.8000000000000003,0.5517638639164983,0.1908256341898889
2.9000000000000004,0.5517899697669612,0.19083294041198737
3.0,0.5518169455773461,0.1908404899799029
3.1,0.5518447795605033,0.1908482795822278
3.2,0.5518734934254768,0.19085631528135746
3.3000000000000003,0.5519030487116859,0.19086458630057412
3.4000000000000004,0.5519334825211857,0.19087310300910335
3.5,0.5519647509800225,0.19088185311500847
3.6,0.5519968866822939,0.19089084572496834
3.7,0.5520298397511122,0.19090006686718877
3.8000000000000003,0.5520636442915299,0.19090952607029762
3.9000000000000004,0.5520982849616766,0.19091921902590855
4.0,0.5521337326852723,0.19092913758268326
4.1000000000000005,0.5521700237394822,0.19093929187544784
4.2,0.5522071336421136,0.1909496750377509
4.3,0.5522450398531799,0.1909602807468273
4.4,0.5522837450226263,0.1909711097277628
4.5,0.5523232649665225,0.19098216638872176
4.6000000000000005,0.5523635706333991,0.19099344258477108
4.7,0.5524046691334137,0.19100494028791248
4.800000000000001,0.5524465405562429,0.1910166539106642
4.9,0.5524891899483347,0.19102858484724447
5.0,0.5525326266041822,0.19104073567971042
5.1000000000000005,0.5525768039510282,0.1910530933620342
5.2,0.5526217492387998,0.19106566549881304
5.300000000000001,0.552667437988538,0.19107844522443693
5.4,0.5527138842481282,0.19109143644976712
5.5,0.5527610714433124,0.19110463452012924
5.6000000000000005,0.5528089737809773,0.19111803220275553
5.7,0.5528576368266364,0.19113164222266674
5.800000000000001,0.5529070021096156,0.19114544820765902
5.9,0.5529570879863863,0.19115945527253608
6.0,0.5530078531746029,0.19117365185333138
6.1000000000000005,0.5530593462304076,0.19118805150959034
6.2,0.553111519680001,0.19120264094606412
6.300000000000001,0.5531644263356554,0.19121743491093277
6.4,0.5532179266399071,0.1912323943616885
6.5,0.5532721868898716,0.19124756577784466
6.6000000000000005,0.5533270257638467,0.19126289844146388
6.7,0.5533826237681152,0.19127844280137202
6.800000000000001,0.5534389071404023,0.19129417821312109
6.9,0.5534957866495693,0.19131007971051447
7.0,0.5535533548762127,0.191326173156114
7.1000000000000005,0.553611244166294,0.1913423557550366
7.2,0.553670174548108,0.19135882876548696
7.300000000000001,0.5537294717243936,0.19137540367659459
7.4,0.5537896321392938,0.19139221923611344
7.5,0.5538502349917336,0.1914091578039854
7.6000000000000005,0.5539114311693117,0.19142626153657116
7.7,0.5539732436286723,0.19144353683010729
7.800000000000001,0.5540357693152766,0.19146101075670147
7.9,0.5540987902855325,0.1914786223877974
8.0,0.5541623834214214,0.19149639319048345
8.1,0.5542266019001848,0.19151433800440393
8.200000000000001,0.5542913135032468,0.19153241986392275
8.3,0.5543567719870632,0.1915507096526268
8.4,0.5544225511238415,0.19156908825925162
8.5,0.554488768342344,0.19158758847984456
8.6,0.5545566757360494,0.1916065600947031
8.700000000000001,0.5546233372181367,0.1916251828271984
8.8,0.5546912537849026,0.19164415536234564
8.9,0.5547602657126605,0.19166343303831376
9.0,0.5548288995924421,0.19168260426234435
9.1,0.5548984836377439,0.1917020400283675
9.200000000000001,0.5549683828495865,0.19172156294899464
9.3,0.555039557242961,0.19174144112737632
9.4,0.5551103805102127,0.19176122033723997
9.5,0.5551820807136991,0.1917812435364209
9.600000000000001,0.5552549431179781,0.19180159034934777
9.700000000000001,0.5553268957396218,0.19182168217021134
9.8,0.5554010792679408,0.19184239596920763
9.9,0.5554742508186528,0.19186282623229464
10.0,0.5555486154462962,0.19188358863027677
10.100000000000001,0.5556233525963014,0.1919044540354553
10.200000000000001,0.5556978147801399,0.19192524167762923
10.3,0.5557745548524073,0.19194666419788597
10.4,0.5558495947182845,0.19196761107200255
10.5,0.5559265233128553,0.19198908412331608
10.600000000000001,0.5560036611601115,0.19201061451727117
10.700000000000001,0.5560817936746115,0.19203242145053454
10.8,0.5561583415176949,0.1920537850371572
10.9,0.5562351418143432,0.19207521802448882
11.0,0.5563160518129147,0.19209779677981356
11.100000000000001,0.556395447265259,0.19211995174461455
11.200000000000001,0.5564775099108222,0.1921428497906556
11.3,0.5565542583658319,0.19216426391874247
11.4,0.5566386914456373,0.19218782096853
11.5,0.5567161413211102,0.1922094285624958
11.600000000000001,0.5567983046694304,0.19223234998419939
11.700000000000001,0.5568791124034006,0.19225489204509108
11.8,0.5569636390032084,0.19227847026583647
11.9,0.5570524380247814,0.19230323887596826
12.0,0.5571391305704944,0.1923274185665272
12.100000000000001,0.5572138064152867,0.19234824556204586
12.200000000000001,0.5572953519334461,0.19237098735972127
12.3,0.5573819544405781,0.19239513817040016
12.4,0.5574653402132755,0.19241839066243885
12.5,0.5575837087996556,0.19245139612919812
12.600000000000001,0.557649130073133,0.19246963688328877
12.700000000000001,0.5577446344262769,0.19249626402368672
12.8,0.5578012659336266,0.1925120524292716
12.9,0.5578976043284725,0.1925389094748543
13.0,0.5579981002877066,0.19256692378900442
13.100000000000001,0.5580761449850165,0.19258867832931553
13.200000000000001,0.5581714312911298,0.19261523739816092
13.3,0.5582635629813325,0.19264091563932342
13.4,0.5583652481857864,0.19266925480056266
13.5,0.5584551666352248,0.1926943130851128
13.600000000000001,0.5585444493804168,0.19271919278248428
13.700000000000001,0.5586376558774414,0.19274516435936398
13.8,0.5587203829393929,0.19276821458719834
13.9,0.5588299553656285,0.1927987428513408
14.0,0.5589081918706408,0.19282053921833042
14.100000000000001,0.5590236113093928,0.19285269259982907
14.200000000000001,0.5591324511631036,0.1928830108693127
14.3,0.5591650408141442,0.1928920885828092
14.4,0.5592469426788733,0.19291490117338794
14.5,0.5594048603710408,0.19295888350081214
14.600000000000001,0.5594680057147333,0.19297646913222757
14.700000000000001,0.5595757814672229,0.193006482442589
14.8,0.5596690792252427,0.1930324622571298
14.9,0.5597934821218493,0.19306710123130894
15.0,0.5598993751150558,0.19309658409692682
15.100000000000001,0.5599953137337004,0.19312329372455675
15.200000000000001,0.5600891652275132,0.1931494207003924
15.3,0.5602054506865988,0.19318179080606918
15.4,0.5603158961199348,0.19321253300388708
15.5,0.5604129465077148,0.19323954492963807
15.600000000000001,0.5605286056233404,0.1932717340077621
15.700000000000001,0.5606018413777948,0.19329211501046825
15.8,0.5607341109102071,0.19332892228079296
15.9,0.5608220287913113,0.19335338588094972
16.0,0.560973700049762,0.1933955859455162
16.1,0.5610577694229527,0.1934189751171115
16.2,0.5611711157555203,0.19345050751823256
16.3,0.5612650676989758,0.1934766427589369
16.400000000000002,0.5614223181286543,0.19352038264417418
16.5,0.5615403376919011,0.19355320740114237
16.6,0.5616690599137141,0.19358900605793836
16.7,0.5617585039546097,0.19361387940788255
16.8,0.5618216465204459,0.19363143776502303
16.900000000000002,0.5619029693471861,0.19365405054896348
17.0,0.5620516302825749,0.19369538445565365
17.1,0.5621862536092005,0.19373281193083186
17.2,0.5624442972330089,0.1938045432413607
17.3,0.5625526258885769,0.19383465305491981
17.400000000000002,0.5625927712646032,0.19384581088155983
17.5,0.5628420834329809,0.1939150971756348
17.6,0.5630959245383351,0.19398563075070685
17.7,0.5629470804663251,0.19394427357226537
17.8,0.563218019376487,0.19401955256115613
17.900000000000002,0.5632447870246186,0.194026989106925
18.0,0.5634139115566693,0.19407397207384058
18.1,0.5633712036255419,0.19406210824684889
18.2,0.563759733896893,0.19417002605210854
18.3,0.5639696118732014,0.19422831040925329
18.400000000000002,0.5640651005196842,0.19425482558320611
18.5,0.5640547115840369,0.19425194087437428
18.6,0.5642327651003137,0.194301378568488
18.7,0.5642479533220125,0.19430559541459788
18.8,0.5646059418072894,0.19440497520645145
18.900000000000002,0.5645083470454342,0.19437788455865948
19.0,0.5648708671087994,0.19447850545055453
19.1,0.5653015022808502,0.19459800205204772
19.200000000000003,0.5653463991532183,0.19461045855596606
19.3,0.5651903721455219,0.19456716778925293
19.400000000000002,0.5662876060064553,0.1948715113829085
19.5,0.5657332353378212,0.19471777030835818
19.6,0.5657300124860485,0.19471687637052143
19.700000000000003,0.5660548863275224,0.19480697892975296
19.8,0.5658308280631925,0.19474483919870073
19.900000000000002,0.5664549622676963,0.19491791283419543
20.0,0.5664320841461153,0.19491156990397676
20.1,0.5668733170016715,0.19503388482137932
20.200000000000003,0.566541074270034,0.19494178644719345
20.3,0.5671029983106626,0.19509754154066103
20.400000000000002,0.5672118776398908,0.19512771444527827
20.5,0.5676358347904539,0.19524518251330933
20.6,0.5676012471895825,0.19523560033256285
20.700000000000003,0.5670630125267073,0.1950864600566125
20.8,0.5686155061300385,0.19551650379751095
20.900000000000002,0.5678792782842633,0.19531262034244834
21.0,0.5690630728228675,0.19564040160374352
21.1,0.5686752870781412,0.19553305472479074
21.200000000000003,0.5691378744845365,0.1956611051529754
21.3,0.5701413645363312,0.19593875500429545
21.400000000000002,0.5684784638249678,0.19547855994406732
21.5,0.5692833046786625,0.19570135439120748
21.6,0.5710280776969189,0.19618394689857876
21.700000000000003,0.5684402789904225,0.19546798685353114
21.8,0.5696396557158049,0.19579996228421342
21.900000000000002,0.5720388434693987,0.1964632728077161
22.0,0.5737340338162782,0.19693133704083618
22.1,0.5719906723605539,0.1964499647604126
22.200000000000003,0.5718676455241224,0.19641597475780237
22.3,0.5742545146805186,0.19707494745482163
22.400000000000002,0.5729888978059785,0.1967256573730541
22.5,0.5717082370409706,0.19637192923305796
22.6,0.5707216806438762,0.19609923833802176
22.700000000000003,0.5748486994782097,0.1972388361332049
22.8,0.5727125670827725,0.1966493571202063
22.900000000000002,0.5730878244396698,0.19675296967019917
23.0,0.5742923022201035,0.19708537189560754
23.1,0.5751933891692956,0.19733388047051353
23.200000000000003,0.575571044793207,0.19743799092227693
23.3,0.5749326598716722,0.19726198919141927
23.400000000000002,0.5759391614944696,0.19753944771112875
23.5,0.5753080347263207,0.19736548809489682
23.6,0.5754738549691436,0.19741120044124988
23.700000000000003,0.5750872690345648,0.1973046212431937
23.8,0.5759655579660315,0.19754672194240272
23.900000000000002,0.5766680949337978,0.19774027943564562
24.0,0.5763912488996874,0.1976640152793778
24.1,0.5786879628705958,0.19829629758565856
24.200000000000003,0.5772202393826296,0.19789234143935183
24.3,0.5774982925368689,0.19796889784186622
24.400000000000002,0.5774031829353702,0.19794271282440024
24.5,0.5782391686036134,0.19817281746283275
24.6,0.5788995988468989,0.19835451439518284
24.700000000000003,0.5818031617733533,0.19915243929166615
24.8,0.5871984759151655,0.20063123778518446
24.900000000000002,0.5768086454259761,0.19777899245511454
25.0,0.5770085711844962,0.19783405376518332
25.1,0.5799732973818762,0.19864974714575184
25.200000000000003,0.5808394780921513,0.19888777295679572
25.3,0.5811903079036873,0.19898414361879088
25.400000000000002,0.5832798624422575,0.19955768805990085
25.5,0.5838625796356807,0.19971749827942695
25.6,0.5827354411213275,0.19940832733029557
25.700000000000003,0.5853363790264016,0.20012142557923454
25.8,0.577628920769867,0.19800485906749607
25.900000000000002,0.5830178861139521,0.19948582187227917
26.0,0.5884173530465873,0.20096462297205858
26.1,0.5812284716882774,0.19899462567206214
26.200000000000003,0.5812816138568172,0.19900922126223008
26.3,0.5865339135223777,0.20044935995248067
26.400000000000002,0.5847783915714253,0.19996854097239466
26.5,0.5837968910548827,0.19969948612349123
26.6,0.5879688295426725,0.20084197334896392
26.700000000000003,0.5900301574419042,0.2014053614817105
26.8,0.589596067768065,0.2012867797756747
26.900000000000002,0.5902356293605354,0.20146147963443983
27.0,0.5883178065374471,0.200937404776361
27.1,0.5947035057489903,0.20267994896891167
27.200000000000003,0.590097889577083,0.20142386117236774
27.3,0.5935466365640079,0.20236477801121047
27.400000000000002,0.5909442858530674,0.20165497111720102
27.5,0.591706932269431,0.20186310773909885
27.6,0.595311514339565,0.20284549977501823
27.700000000000003,0.597190393416245,0.20335668938927867
27.8,0.591862545507069,0.20190556446633087
27.900000000000002,0.5908512050960294,0.20162956127594658
28.0,0.5964069078438574,0.20314359836028079
28.1,0.6033281529557013,0.2050224184443641
28.200000000000003,0.6079268428948583,0.20626628542621625
28.3,0.5961978993429663,0.20308673492479815
28.400000000000002,0.5964426453205748,0.20315332045252332
28.5,0.5992145744719857,0.20390673907899337
28.6,0.6031734571129191,0.20498051386478439
28.700000000000003,0.5935710797481238,0.2023714395411111
28.8,0.6001985692791729,0.2041738777755332
28.900000000000002,0.6011372199018024,0.20442855321376904
29.0,0.6026313355182409,0.2048336300496034
29.1,0.6020763409421439,0.20468320691674466
29.200000000000003,0.60503390577151,0.20548421115456017
29.3,0.5939735081144778,0.20248109913330178
29.400000000000002,0.6159133594193834,0.2084180714541664
29.5,0.6068765964833749,0.20598252547263057
29.6,0.6147713920661191,0.2081110466722134
29.700000000000003,0.6012021213733318,0.20444615681410785
29.8,0.6081357268578255,0.20632270046829623
29.900000000000002,0.596142064626061,0.20307154311582612
30.0,0.6191360828494924,0.20928335125304567
30.1,0.6183454536987136,0.20907123212256432
30.200000000000003,0.6088679384137626,0.20652039713072376
30.3,0.6203725578710081,0.20961487949667051
30.400000000000002,0.6203898587970991,0.20961951648992524
30.5,0.6225611983998817,0.2102010861356659
30.6,0.6179254407966681,0.20895850405210462
30.700000000000003,0.6307956659563989,0.21239954858970864
30.8,0.6274723653838339,0.21151362294640244
30.900000000000002,0.6151379251464176,0.20820961494720713
31.0,0.6362080201085538,0.21383851708725418
31.1,0.6247156148403001,0.21077735441391213
31.200000000000003,0.6356090862288648,0.21367951450647085
31.3,0.6261642493207844,0.21116440901395903
31.400000000000002,0.625210439977241,0.21090960347097756
31.5,0.6264266461661508,0.21123448084648908
31.6,0.6302290717226259,0.2122486336034844
31.700000000000003,0.6361478030504386,0.2138225335344426
31.8,0.6352833034993208,0.21359300255477687
31.900000000000002,0.6362629892494973,0.21385310715972278
32.0,0.6365840720613455,0.21393832012033762
32.1,0.6368391890772593,0.21400601433745323
32.2,0.6400321903807289,0.2148523724181369
32.300000000000004,0.6376910313474536,0.2142319706614689
32.4,0.6526054781983626,0.21816918805940425
32.5,0.6481504800649931,0.21699686129213175
32.6,0.6437805483246313,0.21584383691857228
32.7,0.6514181244262329,0.21785704669752567
32.800000000000004,0.639991950305022,0.21484171637288713
32.9,0.6531867770917392,0.21832192294704153
33.0,0.6455805831741972,0.21631915431254758
33.1,0.6536033849568823,0.2184313526290231
33.2,0.6474967760817133,0.2168245734139735
33.300000000000004,0.6607380549725226,0.22030113741756063
33.4,0.6661069071808191,0.22170286484333118
33.5,0.6809532346419074,0.2255556312149142
33.6,0.6623540502592354,0.220723525885228
33.7,0.6568107391784593,0.21927290092090412
33.800000000000004,0.6522945917671152,0.21808748134565845
33.9,0.6506573470544753,0.21765692927246325
34.0,0.6698469927394647,0.22267667878036848
34.1,0.6730153476790566,0.22349992505190502
34.2,0.7048744371009035,0.23169239899874725
34.300000000000004,0.6606118442919455,0.22026813119790856
34.4,0.711930082508329,0.23348602354155398
34.5,0.6645620422665098,0.22129998700355324
34.6,0.712060227268672,0.23351903832616444
34.7,0.6833889268928823,0.22618446611828347
34.800000000000004,0.7048636836531962,0.23168965968984123
34.9,0.6890109072549383,0.22763245415676195
35.0,0.655851674009323,0.21902143145590777
35.1,0.6872041592439315,0.22716763734218265
35.2,0.6675570024347505,0.22208068841751938
35.300000000000004,0.6980795515561273,0.22995803219331074
35.4,0.7116773277866552,0.2334218982094453
35.5,0.6595862613071082,0.2199998309151853
35.6,0.7006861220604322,0.23062416779508849
35.7,0.6834982226534954,0.22621266221968991
35.800000000000004,0.6775671573630394,0.22467991512322497
35.9,0.6847490736855704,0.22653522625854577
36.0,0.6460942668442918,0.2164547023209881
36.1,0.6836453961193958,0.2262506271130241
36.2,0.6912442589086146,0.22820633535377066
36.300000000000004,0.7397255455252992,0.24048074054393814
36.4,0.7125115436339623,0.2336335076503809
36.5,0.7209845105852218,0.23577696155496383
36.6,0.7093321330119465,0.23282645682241424
36.7,0.6926341683509977,0.22856310351083906
36.800000000000004,0.7167234424020189,0.23470033761133163
36.9,0.6877783107590149,0.22731540156875196
37.0,0.7135859654929848,0.23390589657023095
37.1,0.732061061654915,0.2385631984621231
37.2,0.7277794371642778,0.2374883010269712
37.300000000000004,0.7167125046892773,0.23469757059405705
37.4,0.7355188163788704,0.23942932662466695
37.5,0.7334398338834092,0.238908772288407
37.6,0.7471076911637785,0.24231967558208092
37.7,0.7144892394308834,0.2341347637172478
37.800000000000004,0.7262491452659193,0.23710347655040293
37.9,0.7501957954055187,0.24308663617639947
38.0,0.703286646001202,0.2312877415039339
38.1,0.7663425012716841,0.247074918941508
38.2,0.7384981235361218,0.24017422625980203
38.300000000000004,0.7744836506206689,0.24907200228719784
38.400000000000006,0.7516250324664641,0.24344114306517317
38.5,0.799483475654467,0.2551478629561254
38.6,0.7242892598371186,0.23661012309740803
38.7,0.7609916024277288,0.24575728496898364
38.800000000000004,0.6680815800633229,0.2222172866524075
38.900000000000006,0.7242613817732729,0.23660310142914626
39.0,0.8263476213652216,0.2615834433364018
39.1,0.7094179793623746,0.23284826748131862
39.2,0.7298730310457779,0.23801422801908959
39.300000000000004,0.7909713700851406,0.2530886434071433
39.400000000000006,0.744510286744514,0.24167353466874275
39.5,0.7985135445749374,0.2549137128312078
39.6,0.721028476447259,0.23578805630175756
39.7,0.7845967548218378,0.251540098913202
39.800000000000004,0.7843131318559843,0.2514710717350543
39.900000000000006,0.7550017572120603,0.24427755564350626
40.0,0.79677585840245,0.25449390374761655
40.1,0.7730512739438793,0.24872129491784442
40.2,0.8624355071534806,0.2700812428311712
40.300000000000004,0.7846657910046791,0.25155689904089135
40.400000000000006,0.8583141176979759,0.2691191262628417
40.5,0.7510986055179116,0.24331060218086045
40.6,0.7721899735501403,0.2485102751369561
40.7,0.7787536617564046,0.25011580713532805
40.800000000000004,0.7594932661760093,0.24538760906936483
40.900000000000006,0.8298059757367257,0.26240504156966193
41.0,0.7928927361064411,0.25355430768234305
41.1,0.8670503574420169,0.2711560317488927
41.2,0.8263405633539195,0.2615817649805134
