Frequency (Hz),Power,Log Power
0.0,0.12398396104278864,0.0507601140085663
0.1,0.12398412457018934,0.050760177193669535
0.2,0.12398463974244253,0.050760376250231436
0.30000000000000004,0.12398549967951783,0.05076070851970428
0.4,0.12398669759255088,0.050761171378649474
0.5,0.12398824112984198,0.05076176778185369
0.6000000000000001,0.12399013190879744,0.05076249835371033
0.7000000000000001,0.12399236870698402,0.050763362621211734
0.8,0.12399494012571775,0.0507643561792824
0.9,0.12399785486239077,0.05076548238756577
1.0,0.12400112228743913,0.05076674486560329
1.1,0.12400472414715916,0.05076813655931573
1.2000000000000002,0.12400868192118565,0.050769665766762354
1.3,0.12401297624349157,0.05077132500387355
1.4000000000000001,0.12401761703612,0.05077311810280753
1.5,0.12402260548511272,0.050775045520163424
1.6,0.12402793077976601,0.050777103077184596
1.7000000000000002,0.12403360559244646,0.05077929566826191
1.8,0.12403962747947966,0.05078162234718919
1.9000000000000001,0.12404599078080795,0.050784080924950764
2.0,0.12405271485336884,0.05078667887814716
2.1,0.12405977393179837,0.050789406249508326
2.2,0.12406718492873861,0.05079226957096259
2.3000000000000003,0.12407493936220139,0.050795265562743316
2.4000000000000004,0.12408303642310593,0.05079839390951291
2.5,0.12409149798949724,0.05080166306102734
2.6,0.1241002914624301,0.05080506041955295
2.7,0.12410944637881038,0.050808597393527714
2.8000000000000003,0.12411894315019728,0.050812266411700814
2.9000000000000004,0.12412879839929154,0.050816073892718486
3.0,0.1241389972702315,0.0508200140935962
3.1,0.12414955402999953,0.05082409252250726
3.2,0.12416045559577356,0.05082830412129886
3.3000000000000003,0.12417171580283348,0.05083265423099657
3.4000000000000004,0.12418332911352323,0.050837140708130724
3.5,0.12419528720573131,0.05084176033351088
3.6,0.12420760943730438,0.05084652058104923
3.7,0.12422028159254915,0.05085141595449537
3.8000000000000003,0.12423332188205728,0.050856453484082055
3.9000000000000004,0.1242466988398597,0.05086162100961463
4.0,0.12426043814065267,0.05086692844442022
4.1000000000000005,0.12427454107863972,0.050872376283304696
4.2,0.12428900377826971,0.050877963023921606
4.3,0.12430382329501692,0.050883687523502266
4.4,0.12431900325328504,0.050889551176609094
4.5,0.12433454064916613,0.050895552817291065
4.6000000000000005,0.12435044767677061,0.05090169714995489
4.7,0.12436670922392683,0.05090797833136153
4.800000000000001,0.12438333881156774,0.05091440157804936
4.9,0.12440032916863565,0.05092096407530099
5.0,0.12441769790973226,0.05092767262025672
5.1000000000000005,0.12443542361525319,0.05093451893318135
5.2,0.12445349958545011,0.05094150041993308
5.300000000000001,0.12447197033406039,0.050948634266123706
5.4,0.12449080477860447,0.05095590845974387
5.5,0.12451000525039055,0.05096332389410889
5.6000000000000005,0.12452957247389801,0.050970880841776554
5.7,0.12454953367462097,0.05097858980968497
5.800000000000001,0.12456985064082342,0.05098643603285351
5.9,0.12459052937060135,0.05099442182018584
6.0,0.12461160697617946,0.051002561495714874
6.1000000000000005,0.12463305313709043,0.05101084334206727
6.2,0.12465488968033933,0.05101927577977925
6.300000000000001,0.12467710543731497,0.051027854487313
6.4,0.12469968495627932,0.05103657348942279
6.5,0.12472264937364211,0.051045440939157714
6.6000000000000005,0.12474601232256752,0.05105446209155015
6.7,0.12476973720702231,0.05106362280661075
6.800000000000001,0.12479385925652631,0.05107293667798446
6.9,0.12481838447023925,0.051082406012100304
7.0,0.12484328397537392,0.05109201965119476
7.1000000000000005,0.12486863643091606,0.05110180795470624
7.2,0.12489429277258722,0.0511117133607109
7.300000000000001,0.12492040081118391,0.05112179292604467
7.4,0.124946932841086,0.05113203594260685
7.5,0.12497374622928582,0.05114238733556507
7.6000000000000005,0.12500087009479793,0.05115285833824651
7.7,0.12502860313367214,0.05116356424756318
7.800000000000001,0.1250566849592706,0.05117440453167538
7.9,0.1250852556278472,0.05118543324367255
8.0,0.12511410006849932,0.051196567351748545
8.1,0.12514348352228494,0.05120790922828051
8.200000000000001,0.12517306376317902,0.05121932676454659
8.3,0.12520326106363225,0.05123098216707757
8.4,0.1252337381195693,0.0512427452310725
8.5,0.12526450767573732,0.05125462086659466
8.6,0.12529673908990582,0.05126706036393196
8.700000000000001,0.12532805506052277,0.051279146210733775
8.8,0.12536003175494498,0.051291486705198036
8.9,0.12539248337325973,0.051304010124515964
9.0,0.12542534122879762,0.05131668994710512
9.1,0.1254590135707843,0.05132968369535122
9.200000000000001,0.12549280965275308,0.05134272480245858
9.3,0.125526733832456,0.05135581494562667
9.4,0.12556164257691482,0.05136928458568945
9.5,0.12559681921746715,0.051382857171666255
9.600000000000001,0.125632795294438,0.0513967377741686
9.700000000000001,0.12566884268641387,0.05141064544709819
9.8,0.12570463666615042,0.051424454908770234
9.9,0.12574269500887109,0.05143913748917351
10.0,0.12577882739640187,0.051453076593346164
10.100000000000001,0.12581848594914244,0.05146837550182793
10.200000000000001,0.1258560337699252,0.05148285966570878
10.3,0.12589098370584242,0.051496341255065935
10.4,0.12593219411089773,0.051512237220336064
10.5,0.1259770532772931,0.05152953994996732
10.600000000000001,0.12601090941315682,0.05154259821957522
10.700000000000001,0.12605584909279774,0.051559930791813965
10.8,0.12609008862901983,0.05157313601212962
10.9,0.12613623594070947,0.051590933089275634
11.0,0.12618127093237194,0.05160830048824538
11.100000000000001,0.12622222202860328,0.051624092361396624
11.200000000000001,0.1262627779005564,0.05163973125923656
11.3,0.12630964676997777,0.051657803833634365
11.4,0.12635101572354118,0.05167375502287105
11.5,0.12639089412370355,0.051689130924623225
11.600000000000001,0.1264452919160276,0.05171010418595941
11.700000000000001,0.12648836602765845,0.0517267108436215
11.8,0.1265452339807787,0.05174863456303904
11.9,0.1265739119255225,0.05175969005753241
12.0,0.12662648971639842,0.051779958334100804
12.100000000000001,0.12667427470057357,0.05179837820531899
12.200000000000001,0.12670949787882563,0.05181195532621369
12.3,0.12676259280692895,0.05183242048696883
12.4,0.12681251470999189,0.051851661742303594
12.5,0.12686818089255603,0.051873115993536535
12.600000000000001,0.1269138552036901,0.05189071849544249
12.700000000000001,0.12696469121969733,0.051910309436820096
12.8,0.1270118382930451,0.051928477961228174
12.9,0.1270665037166387,0.05194954279413995
13.0,0.12711546497000417,0.051968408708660055
13.100000000000001,0.12716986945059533,0.0519893710645388
13.200000000000001,0.12722320734600528,0.05200992147688314
13.3,0.1272788326639758,0.05203135216820641
13.4,0.1273288691032013,0.052050628736308495
13.5,0.1273863965021464,0.052072790143832245
13.600000000000001,0.1274421629796234,0.05209427210825612
13.700000000000001,0.1274870729907208,0.052111571249793
13.8,0.12756595459268227,0.052141954432849524
13.9,0.1276347454552662,0.052168449185209395
14.0,0.1276724950646385,0.05218298773388376
14.100000000000001,0.12772807941897257,0.052204394111664616
14.200000000000001,0.1277939552508437,0.05222976252734918
14.3,0.12783900154499278,0.05224710875109784
14.4,0.12791786267650776,0.052277474571821504
14.5,0.1279618226383909,0.05229440062421446
14.600000000000001,0.12804840340391996,0.0523277351794329
14.700000000000001,0.12809690452487138,0.05234640753100933
14.8,0.1281619824220306,0.05237146048198178
14.9,0.12824279389040505,0.052402568353382355
15.0,0.1282657487317334,0.052411404270228085
15.100000000000001,0.12832710364695435,0.05243502049421518
15.200000000000001,0.12840539294597103,0.052465153095770684
15.3,0.12848661729230781,0.0524964131518704
15.4,0.12855409768760737,0.052522381990739345
15.5,0.12859533979096296,0.052538252643886174
15.600000000000001,0.128636393822268,0.05255405034776574
15.700000000000001,0.12877146978152879,0.052606023892077886
15.8,0.12879721314800038,0.05261592853160382
15.9,0.12892572260296942,0.05266536856371932
16.0,0.12892160798050645,0.05266378567739518
16.1,0.1290098454573829,0.05269772917843962
16.2,0.12907382198449038,0.05272233823354435
16.3,0.12916740642660907,0.052758333685505844
16.400000000000002,0.12922778966359313,0.052781557350410284
16.5,0.12927389488651592,0.05279928879072051
16.6,0.1293815136146673,0.05284067466981033
16.7,0.12943098063331185,0.05285969639320853
16.8,0.12952352426182923,0.052895280276935144
16.900000000000002,0.12958049667869814,0.052917185249918
17.0,0.129635565484546,0.05293835726521126
17.1,0.12979918724804637,0.05300125797880414
17.2,0.12975069635998612,0.05298261769538914
17.3,0.1297628962485305,0.05298730750499418
17.400000000000002,0.13007704088949068,0.05310805170702834
17.5,0.13008938453674768,0.05311279540893456
17.6,0.1301980402674435,0.05315454990775345
17.7,0.13028293242235572,0.05318716968637408
17.8,0.13040304680392525,0.05323331940698214
17.900000000000002,0.1303969742181711,0.05323098634748166
18.0,0.1305097522406437,0.05327431309980384
18.1,0.13109197029825237,0.05349791931017219
18.2,0.13049667351929475,0.0532692887739571
18.3,0.13070310446168684,0.05334858457107955
18.400000000000002,0.13088593456147093,0.05341880254814345
18.5,0.1308730018619859,0.05341383597108512
18.6,0.13095846035283118,0.053446653757594435
18.7,0.1308634997398067,0.0534101868110473
18.8,0.13108524848102446,0.053495338391129924
18.900000000000002,0.13123148388786396,0.05355148369512646
19.0,0.1313683705068095,0.05360403306943274
19.1,0.13126731471681444,0.053565239398604525
19.200000000000003,0.1317196914203244,0.05373887248457468
19.3,0.13160013525470807,0.05369299069408173
19.400000000000002,0.1320161817729054,0.053852634983393106
19.5,0.13215756927608777,0.05390687447141256
19.6,0.13182201207685448,0.05377813599491984
19.700000000000003,0.1320798012554438,0.053877041713869554
19.8,0.1326377644751465,0.05409103780414717
19.900000000000002,0.13204280233881607,0.05386284776049992
20.0,0.13121233348830513,0.05354413154539266
20.1,0.13185682770031293,0.053791494986387633
20.200000000000003,0.13248298768665392,0.054031686703143456
20.3,0.13347975112709057,0.05441376614553742
20.400000000000002,0.13353417539294982,0.054434618384751554
20.5,0.13496324331004406,0.05498179678367101
20.6,0.13309376216191984,0.05426584870250118
20.700000000000003,0.1355256146945145,0.05519693529288614
20.8,0.12907968802119685,0.0527245945791479
20.900000000000002,0.13318533618070674,0.054300945960465155
21.0,0.1322496379188827,0.05394219047236608
21.1,0.13438136265543296,0.05475908264647234
21.200000000000003,0.13389119447192396,0.05457138268074534
21.3,0.13240778889438642,0.054002847855038914
21.400000000000002,0.1347759391657375,0.054910118806639416
21.5,0.13237677255720234,0.053990952485988765
21.6,0.13458121911517618,0.05483559034965
21.700000000000003,0.13352724189828893,0.05443196192520568
21.8,0.13453612051767383,0.054818327185954335
21.900000000000002,0.13291880704499526,0.054198786371916975
22.0,0.13451900747170054,0.05481177635222344
22.1,0.13435006712879852,0.054747101083253355
22.200000000000003,0.13440191035337892,0.054766949199386565
22.3,0.135068607939435,0.05502211276173972
22.400000000000002,0.13533220616094874,0.05512295773399867
22.5,0.13246184894001428,0.05402358015602424
22.6,0.13442098905231195,0.054774253227982996
22.700000000000003,0.1345961968293359,0.05484132347440747
22.8,0.13572527904395343,0.05527329244537557
22.900000000000002,0.13579115798674563,0.05529848342429162
23.0,0.13728742613961273,0.05587023760879867
23.1,0.13635419371822227,0.05551371905269547
23.200000000000003,0.1373628946496463,0.055899055715192936
23.3,0.1370910342360134,0.055795235209926575
23.400000000000002,0.13591323189525537,0.05534515853319864
23.5,0.13455471832805208,0.05482544627196414
23.6,0.13645117982005806,0.05555078384439702
23.700000000000003,0.1382293654678334,0.05622978589023351
23.8,0.13546473139408954,0.05517364916886849
23.900000000000002,0.1363972297800523,0.05553016636319735
24.0,0.1367290486614387,0.05565695836025242
24.1,0.1379034060890843,0.0561053973991471
24.200000000000003,0.1375023631689953,0.055952307579865086
24.3,0.13754388035205126,0.055968158408004245
24.400000000000002,0.13844044263854702,0.056310315486956676
24.5,0.13803078806045255,0.05615401153523169
24.6,0.1383943504901667,0.056292731808278054
24.700000000000003,0.14142083569478084,0.057445795972427674
24.8,0.14216535441770134,0.057728982467331706
24.900000000000002,0.13632413300487614,0.055502230227571794
25.0,0.13792698472359946,0.056114396374556265
25.1,0.13865041967113603,0.05639041054890408
25.200000000000003,0.13760014516587937,0.05598963880476308
25.3,0.1400857949260452,0.05693753454783003
25.400000000000002,0.1390302009369514,0.056535239378820025
25.5,0.13907378233564632,0.056551855969729
25.6,0.1391663012442408,0.05658712920698436
25.700000000000003,0.13922603892925497,0.05660990293783997
25.8,0.1389387459677898,0.056500367622973766
25.900000000000002,0.14459509114382463,0.05865187900577849
26.0,0.1406122346929816,0.05713802570178921
26.1,0.14053980099142283,0.05711044528942803
26.200000000000003,0.13965571796832582,0.056773673820032025
26.3,0.1401272456663278,0.05695332414946554
26.400000000000002,0.14110234407958644,0.05732459750825897
26.5,0.14271254454980023,0.05793699503515688
26.6,0.14165128752578143,0.05753347078381013
26.700000000000003,0.1424639423398476,0.05784250205484073
26.8,0.14207521806117038,0.05769470786180006
26.900000000000002,0.1430753535826434,0.058074860812117525
27.0,0.14230473375297847,0.057781976530673414
27.1,0.1392878907519556,0.05663348138074633
27.200000000000003,0.14366530023724933,0.058298944450083864
27.3,0.14258324371639958,0.05788785072849894
27.400000000000002,0.14270217776683483,0.05793305506173059
27.5,0.14245087583007132,0.05783753494355189
27.6,0.14473868147295524,0.05870635816336025
27.700000000000003,0.14291328015896043,0.05801327905913095
27.8,0.14223316989450327,0.05775476771194459
27.900000000000002,0.13941796738758572,0.05668306352838353
28.0,0.1406090544247764,0.05713681479521115
28.1,0.13717714788088967,0.055828123750599354
28.200000000000003,0.14492425117898516,0.05877675446350068
28.3,0.14508768423728358,0.058838743726003895
28.400000000000002,0.14409709760694778,0.05846288386736245
28.5,0.14338247017182693,0.058191529520719765
28.6,0.14695673658626968,0.059547036544501906
28.700000000000003,0.14178824182289196,0.05758556631322084
28.8,0.14127442494534959,0.05739008518023142
28.900000000000002,0.13537074245501207,0.055137698631637026
29.0,0.1495188499299208,0.06051609726987164
29.1,0.1480463416187666,0.0599594189880085
29.200000000000003,0.144590198661662,0.05865002264402783
29.3,0.13761854391840891,0.05599666272447337
29.400000000000002,0.1569024774482018,0.06329675109420588
29.5,0.14294290609752128,0.05802453644418978
29.6,0.14140258019132593,0.057438849956051787
29.700000000000003,0.14972648455738835,0.060594535679078125
29.8,0.13819574714197932,0.056216958537970076
29.900000000000002,0.15247664209067405,0.06163213205393941
30.0,0.14886897586328815,0.06027050187868075
30.1,0.14586971901221385,0.05913524282294813
30.200000000000003,0.1471023402522657,0.059602165786299
30.3,0.14406743387713844,0.058451623493388165
30.400000000000002,0.1513149766385735,0.06119415412718453
30.5,0.1488028988657834,0.060245522789437796
30.6,0.15687867161081678,0.06328781442894009
30.700000000000003,0.15041029508311315,0.06085275958068908
30.8,0.1520228425679649,0.06146109046120974
30.900000000000002,0.1554284754641942,0.06274306649826142
31.0,0.14696865663247238,0.059551550039409144
31.1,0.16249207236366073,0.06538999989278188
31.200000000000003,0.1584275298517423,0.06386886991715249
31.3,0.15496254797685013,0.06256790156954532
31.400000000000002,0.15176678646769115,0.061364550611856444
31.5,0.15329374039506344,0.061939934862335795
31.6,0.14350060206008178,0.05823639760153637
31.700000000000003,0.14387780222344682,0.058379632276394366
31.8,0.1489824585660741,0.06031339839576018
31.900000000000002,0.15845435420221957,0.06387892624973777
32.0,0.15019112291647488,0.060770011424401756
32.1,0.1615982620218771,0.06505595356704376
32.2,0.1548003320995712,0.06250690010389459
32.300000000000004,0.14958328431054857,0.060540440247542925
32.4,0.1520447500208836,0.061469349147670244
32.5,0.15527967167913465,0.06268713155649315
32.6,0.15696391882108204,0.06331981521688106
32.7,0.15844004074130225,0.06387356022433152
32.800000000000004,0.15080311608472732,0.061001029179854345
32.9,0.16086074257146699,0.06478012468244962
33.0,0.15736971870106553,0.0634721153412733
33.1,0.15044487632163306,0.06086581424076011
33.2,0.15592324377264238,0.06292899678976425
33.300000000000004,0.12826414718368445,0.0524107877984664
33.4,0.13944372700418486,0.05669288181562137
33.5,0.15797759332614447,0.06370015594671948
33.6,0.1587861312739994,0.06400328878645646
33.7,0.15087401765272537,0.06102778546056656
33.800000000000004,0.15433329677729113,0.0623312230763294
33.9,0.15280243956565193,0.06175488686282033
34.0,0.1469045873766693,0.059527289828575906
34.1,0.15078043364233865,0.060992469108622493
34.2,0.1552586204009361,0.06267921785604484
34.300000000000004,0.15175356491626846,0.06135956515833376
34.4,0.1584235019795189,0.06386735986522729
34.5,0.1409229081715238,0.05725630025798915
34.6,0.17165673431328415,0.06880039305619479
34.7,0.1588663466323082,0.06403335117745203
34.800000000000004,0.15115412451145485,0.061133473885014285
34.9,0.15368543025120124,0.06208740801418488
35.0,0.15432062333434501,0.06232645492438574
35.1,0.15040387837744268,0.0608503371861325
35.2,0.14787021052391341,0.059892785239787145
35.300000000000004,0.15675538295133265,0.06324152916231347
35.4,0.1598903088488507,0.06441691981815247
35.5,0.13180769309692916,0.05377264158569388
35.6,0.15823747818998496,0.06379761370369352
35.7,0.16400104659977405,0.06595337080553833
35.800000000000004,0.17070270521563272,0.06844662190681103
35.9,0.1564727039240708,0.06313538663101945
36.0,0.14837466952399161,0.06008360440329064
36.1,0.16488751448655015,0.06628399042954032
36.2,0.16162256499552516,0.06506503978668056
36.300000000000004,0.19770473965066215,0.07834976818277288
36.4,0.18302299603314776,0.0729931866847648
36.5,0.17696742895370918,0.07076444447351089
36.6,0.1870858344339938,0.07448212255467711
36.7,0.2545723758343755,0.09849572066761796
36.800000000000004,0.17432962895797352,0.06979001849934748
36.9,0.15943570153612638,0.06424666910825354
37.0,0.14477102446905313,0.05871862837536071
37.1,0.15912315761545529,0.0641295824961227
37.2,0.16727139405641753,0.06717184253901837
37.300000000000004,0.16687588721930333,0.06702466550358836
37.4,0.18402290612433173,0.0733601043355254
37.5,0.1559462142267394,0.06293762698419583
37.6,0.18542302589871276,0.07387335880955409
37.7,0.1709829067705807,0.06855055557672178
37.800000000000004,0.17656956084226103,0.07061760851748186
37.9,0.19817078248331269,0.07851872506824849
38.0,0.17058223904673356,0.06840193038595765
38.1,0.13921997473487782,0.05660759114625977
38.2,0.1925531592499228,0.07647774725457335
38.300000000000004,0.12623476889638263,0.05162893066504795
38.400000000000006,0.23443265726518184,0.09146740259045716
38.5,0.14888749274858615,0.06027750155964518
38.6,0.14906270990968076,0.060343730885465754
38.7,0.1734821466074938,0.06947648661562514
38.800000000000004,0.1759118068727243,0.07037475097073655
38.900000000000006,0.17418682251219755,0.06973720213400479
39.0,0.1532548060451251,0.061925273151995995
39.1,0.15950073728790023,0.06427102912749029
39.2,0.1594137734256017,0.06423845533025496
39.300000000000004,0.16529172095773534,0.06643466093511853
39.400000000000006,0.16764296702349954,0.06731006781466899
39.5,0.1541684485199428,0.06226919783525239
39.6,0.17635762234334332,0.0705393708894843
39.7,0.11496487278297203,0.04726118505518197
39.800000000000004,0.17255821513428227,0.06913441376149958
39.900000000000006,0.1847445575830985,0.07362472233699487
40.0,0.16090882737378906,0.0647981135169879
40.1,0.1567477723780231,0.06323867182452696
40.2,0.20380204837987093,0.08055507798139269
