Frequency (Hz),Power,Log Power
0.0,0.020494976928779635,0.008810871376947664
0.5,0.020495708199339314,0.008811182585392811
1.0,0.020497901119465423,0.008812115829971035
1.5,0.020501526662857362,0.008813658753959737
2.0,0.020506563327647952,0.008815802200363964
2.5,0.020512954075568454,0.008818521886808327
3.0,0.020520646217198686,0.008821795379869494
3.5,0.020529560808467417,0.008825589071747459
4.0,0.020539621781565442,0.008829870577868203
4.5,0.020550727358199412,0.008834596572141426
5.0,0.020562767556749864,0.00883972023802727
5.5,0.020575626807686622,0.008845192382139332
6.0,0.020589173405969132,0.008850956946452904
6.5,0.02060325588349369,0.00885694946552438
7.0,0.020617748723755398,0.008863116519987025
7.5,0.020632408587285916,0.00886935455780334
8.0,0.020647131774218883,0.008875619450694976
8.5,0.020661953694858192,0.008881926264680946
9.0,0.020676091656955147,0.00888794196495958
9.5,0.020689865870570947,0.008893802810188221
10.0,0.020702934920211878,0.008899363539255804
10.5,0.020715124412562368,0.008904549962723385
11.0,0.020725824276666298,0.00890910252344334
11.5,0.020736425919143802,0.008913613245918536
12.0,0.020744611782593646,0.008917096085347563
12.5,0.02074956204704266,0.008919202260875014
13.0,0.02075308155067752,0.008920699688284675
13.5,0.020754897499556186,0.008921472309881542
14.0,0.020754790412119035,0.008921426748027678
14.5,0.02074733866763498,0.008918256286959891
15.0,0.020749352435789476,0.0089191130783534
15.5,0.020721742564991995,0.008907365849050403
16.0,0.020715426184542772,0.008904678360827246
16.5,0.020677033551591627,0.008888342737994012
17.0,0.020673345124627186,0.008886773322479426
17.5,0.02064092972566813,0.00887298041555546
18.0,0.02050448244621828,0.008814916643841136
18.5,0.020559866517102173,0.008838485715916928
19.0,0.020582691545036145,0.00884819869127218
19.5,0.020312892086181842,0.008733374182048639
20.0,0.019920813540877283,0.008566454529339265
20.5,0.019258390096998947,0.008284295064427115
21.0,0.02110291332058075,0.009069515284616221
21.5,0.020454630963704163,0.008793700908912704
22.0,0.021163545757656353,0.009095302647217255
22.5,0.020475125096992244,0.008802422903358932
23.0,0.02040567581375802,0.008772865625463073
23.5,0.02034395284576102,0.00874659494135802
24.0,0.021054498749331733,0.00904892315884101
24.5,0.020641387823368863,0.008873175341364458
25.0,0.017625958860434644,0.007588176965943552
25.5,0.01877569829115285,0.008078576825607748
26.0,0.01968210633348243,0.0084647982486728
26.5,0.01830596140860632,0.007878286239630614
27.0,0.01915248520038908,0.008239167840271308
27.5,0.020019657872175637,0.008608541588530905
28.0,0.01916533910465957,0.008244645278214606
28.5,0.019215613917317596,0.008266068235182661
29.0,0.0172126424638056,0.007411749181756692
29.5,0.019530061767473895,0.008400035869185076
30.0,0.018923243146779553,0.008141469253375973
30.5,0.017137252629993646,0.007379560629620129
31.0,0.017144753975957366,0.007382763521990339
31.5,0.01665525827637912,0.00717371122179728
32.0,0.01613689005718252,0.0069522183729044005
32.5,0.017526689562583537,0.007545809521568617
33.0,0.020214751066029487,0.00869159861122858
33.5,0.0162720954603675,0.007010000995429438
34.0,0.014694845438087887,0.006335454201809327
34.5,0.02393122831018845,0.010270788506629876
35.0,0.01837585731568782,0.007908094927945072
35.5,0.016930966658643125,0.007291472276919685
36.0,0.02226739661341744,0.00956450997122489
36.5,0.017420613800619215,0.00750053255734412
37.0,0.014487237421115936,0.006246587838119237
37.5,0.016285998449403302,0.007015942268585073
38.0,0.019598396757653333,0.008429143902122313
38.5,0.01474945884590016,0.006358828385181972
39.0,0.005934091726211424,0.002569526905495777
39.5,0.009794759494176866,0.004233112518442555
40.0,0.012066852643797895,0.005209201016983038
40.5,0.03940024748319165,0.016782815893201755
41.0,0.032423872476709734,0.013858038069660353
41.5,0.018352889305878847,0.00789829992707685
42.0,0.04232789279809535,0.01800435968547212
42.5,0.02589872075561343,0.01110448827282329
43.0,0.037371711863385684,0.015934401022961658
43.5,0.03789946209601897,0.016155286873131613
44.0,0.016791203413462134,0.007231780341468758
44.5,0.047828444396730986,0.02029018364892774
45.0,0.03865648471263728,0.016471936911040163
45.5,0.023228975667342902,0.009972829940358221
46.0,0.035663631389167054,0.015218725725977445
46.5,0.03959933577953433,0.01686599334977611
47.0,0.025364253088635647,0.010878172713349312
47.5,0.04422822733612826,0.018795428781445453
48.0,0.024903974299503126,0.010683177210863155
48.5,0.014202010192178975,0.006124467003124047
49.0,0.023717586483217607,0.010180164112228303
49.5,0.08713406572519307,0.0362831047251304
50.0,0.06498039869040595,0.0273416145175413
50.5,0.09084354054422347,0.03776246429041156
51.0,0.10601836492623101,0.04376233828866604
51.5,0.0893914697806584,0.03718397031136189
52.0,0.07591578353375679,0.031778278599917456
52.5,0.07821073015204229,0.032703649531788205
53.0,0.011118885976201287,0.004802222344649873
53.5,0.04786942771419816,0.020307169712487052
54.0,0.008868782589084894,0.0038346838748639306
54.5,0.01294976526375037,0.005587908134499642
55.0,0.057817500834333305,0.02441074783413485
55.5,0.06706493545514154,0.028190848901275437
56.0,0.06404286840685738,0.026959125268717164
56.5,0.06081075208926714,0.025637912973756737
57.0,0.06224583331786903,0.026225036235445785
57.5,0.05353116802113738,0.022647388448496397
58.0,0.10192599215370056,0.04215242729382513
58.5,0.04391844052661717,0.018666569343557534
59.0,0.1867679194308007,0.07436579800671227
59.5,0.02365974359919519,0.01015562457573364
60.0,0.09330433105286041,0.03874106853704796
60.5,0.05711836965726467,0.024123619673301636
61.0,0.06489942744394332,0.02730859353192801
61.5,0.019526336382195444,0.008398448944693061
62.0,0.09337365269516046,0.03876860437630843
62.5,0.07369736935966643,0.0308818890564114
63.0,0.015491941692814629,0.00667648146585784
63.5,0.14275886500973275,0.05795459903586016
64.0,0.14359143111567077,0.05827089254715931
64.5,0.09340156570578596,0.0387796914477062
65.0,0.01610637334572196,0.006939175407396496
65.5,0.08434283614022607,0.03516661458602654
66.0,0.0255494185296629,0.010956592717671031
66.5,0.12816909289268014,0.05237419770277412
67.0,0.10797357549449922,0.04452940285290466
67.5,0.02832854093570829,0.01213188967874542
68.0,0.02846206767691987,0.01218827842997105
68.5,0.023980649574918394,0.010291749743094046
69.0,0.11603994216667622,0.04767973792787494
69.5,0.04549878326173633,0.019323531727558393
70.0,0.03881431435062539,0.016537925362980647
70.5,0.19116207565675328,0.07597085785091025
71.0,0.10837352050843731,0.044686141763354725
71.5,0.030174449818307345,0.01291077439281899
72.0,0.08431576372153508,0.03515577156808849
72.5,0.0478532006918488,0.020300444293608926
73.0,0.1100201354794136,0.045330856848176185
73.5,0.0422661118892733,0.01797861739921787
74.0,0.061180342022854266,0.025789196238603915
74.5,0.010740496390697428,0.004639666518714859
75.0,0.12334358351165325,0.0505126089785958
75.5,0.04687309963819755,0.019894040354055943
76.0,0.04305881934083504,0.018308799505040982
76.5,0.07845300507501689,0.032801224931119505
77.0,0.043165284005509064,0.018353125535357263
77.5,0.11509410661615391,0.04731152053169397
78.0,0.062177350642333935,0.02619703649572754
78.5,0.1304454012544212,0.05324959144339606
79.0,0.03816939931336296,0.016268223632400658
79.5,0.04372188357983958,0.01858478935815322
80.0,0.016543850215080567,0.0071261173525025015
80.5,0.025851570967789443,0.011084527858769882
81.0,0.23878678332279712,0.09299656320024961
81.5,0.07237218197123156,0.0303455395768924
82.0,0.2181857091236205,0.08571350036556845
82.5,0.1615079589712844,0.06502219005142246
83.0,0.04701640584062431,0.019953486750697958
83.5,0.10949155928916288,0.0451240025859776
84.0,0.23264547070894795,0.0908381842560444
84.5,0.10318453477410204,0.04264816496135143
85.0,0.18701655065549913,0.07445677439540375
85.5,0.1345271332924567,0.05481488690960867
86.0,0.06302932162556052,0.026545243869068418
86.5,0.09913530819198127,0.041051159196886164
87.0,0.24848322385916172,0.09638271101708716
87.5,0.05110820133865628,0.021647424711006096
88.0,0.22138815062917214,0.08685370234616811
88.5,0.21410019461501972,0.08425452872676527
89.0,0.14175729122979336,0.057573793680181
89.5,0.04555154922722496,0.01934544986821028
90.0,0.050201451507349615,0.021272614199749625
90.5,0.18336216481142487,0.07311767963061784
91.0,0.08613766015479651,0.035884872450602755
91.5,0.09561201069929384,0.039656784582138935
92.0,0.2593239436476752,0.10013746072120473
92.5,0.25852173154730174,0.09986071913713596
93.0,0.24443479398901166,0.09497214533780865
93.5,0.04509650437866049,0.019156395120779216
94.0,0.09624055752610185,0.03990586559236774
94.5,0.13158939691805802,0.053688869430452944
95.0,0.1315246229825841,0.053664009027921095
95.5,0.33791615720146156,0.12642889847989597
96.0,0.1556117048687818,0.06281193204216562
96.5,0.18690332776646024,0.07441534749096697
97.0,0.09131913525810349,0.03795177021651989
97.5,0.1108957028226088,0.0456732868302822
98.0,0.18653117537356395,0.0742791535224604
98.5,0.23120685856827836,0.09033102611359496
99.0,0.2207960853921168,0.08664312800322965
99.5,0.048740670084583805,0.0206681102383725
100.0,0.10492460959689641,0.04333264657042127
100.5,0.12859991408222993,0.05254001287216276
101.0,0.08770137210812029,0.03650967638471981
101.5,0.224113853163407,0.0878218128267812
102.0,0.15101046289150638,0.06107927146245306
102.5,0.0514090128206677,0.02177169552956801
103.0,0.06023877113526112,0.0254036815940741
103.5,0.2487707081498985,0.09648270312445922
104.0,0.037989336401092706,0.016192891888208653
104.5,0.04205944775818427,0.01789249544804959
105.0,0.05462601348079179,0.023098479466362513
105.5,0.06891356369302806,0.028942587969417198
106.0,0.032398584459206535,0.013847400403043025
106.5,0.03283167315206805,0.014029547678436107
107.0,0.035337844426258105,0.01508208895088421
107.5,0.04859413530657337,0.020607424414214284
108.0,0.10579990199067395,0.043676547110303464
108.5,0.04076270652882009,0.017351721832813582
109.0,0.023035410196205846,0.009890666152693878
109.5,0.019910000196184913,0.008561850053419777
110.0,0.03144210054607742,0.013444854103554489
110.5,0.009783817904918283,0.004228406713091381
111.0,0.08427023214392151,0.03513753469581271
111.5,0.04228721418557906,0.017987410276547253
112.0,0.1904540717887529,0.07571264480308014
112.5,0.05494671650786036,0.023230524741766883
113.0,0.08840687892441138,0.036791277934504915
113.5,0.2211534467091457,0.08677023959755135
114.0,0.2873805408071397,0.1097069403343896
114.5,0.3064126194812465,0.1160803668791013
115.0,0.11349174331240582,0.04668700103134517
115.5,0.3022199438862507,0.11468434241113833
116.0,0.2141530352403043,0.08427342987900328
116.5,0.26748854877708733,0.10294404435615279
117.0,0.161503165172823,0.06502039761900785
117.5,0.046529148205123716,0.019751328927310567
118.0,0.16243832634202954,0.06536992049544951
118.5,0.08033996777528994,0.033560443352984186
119.0,0.23741713617616675,0.09251612598430468
119.5,0.1351095101135363,0.05503776227256063
120.0,0.2572262729920539,0.09941344814593084
120.5,0.17754151197214452,0.07097622629150939
121.0,0.17096071242685107,0.06854232405403902
121.5,0.20977706605405871,0.0827053472563233
122.0,0.05422923462804714,0.022935055382636644
122.5,0.09364429270187886,0.038876090885367365
123.0,0.11162000155011084,0.04595635250322275
123.5,0.12536523487739476,0.05129349466894387
124.0,0.07649484810267872,0.03201195571460874
124.5,0.032098454491784556,0.013721127720482416
125.0,0.13619646009420833,0.055453431866123906
125.5,0.15721770176713296,0.06341506835737129
126.0,0.13296556712264082,0.054216711067395
126.5,0.039157216956213145,0.016681258135874857
127.0,0.15889152829871395,0.06404278810689484
127.5,0.09798474796259331,0.04059630739850914
128.0,0.057307882801463934,0.02420147011892356
128.5,0.10927756438102386,0.04504022928387342
129.0,0.04754914985803081,0.020174408737490167
129.5,0.07201790043433642,0.030202037217712436
130.0,0.15132987342033477,0.06119977339592843
130.5,0.16753024186827573,0.06726813866548469
131.0,0.07420460501242439,0.031087009822387497
131.5,0.05493328636475103,0.023224995861417647
132.0,0.1333095100045987,0.05434853310292685
132.5,0.04456986140165131,0.01893749113932467
133.0,0.2150280026538026,0.08458628720007799
133.5,0.0974669421433733,0.040391447309655576
134.0,0.11226607767862078,0.04620869214239393
134.5,0.19113081803465118,0.07595946125661815
135.0,0.04204836512503889,0.017887876563757416
135.5,0.07781816508216269,0.032545498733440814
136.0,0.08541551611352315,0.035596025566950316
136.5,0.09919791510841751,0.04107589597296396
137.0,0.04003456791387515,0.017047774303351772
137.5,0.08923964295675037,0.03712343913511146
138.0,0.0769258561244834,0.03218580414808752
138.5,0.04865351187380484,0.020632015611676848
139.0,0.02106488527601291,0.009053340933099556
139.5,0.08194404921699279,0.03420480259624392
140.0,0.06924587405694949,0.029077583102094715
140.5,0.03035642948337342,0.01298748546311269
141.0,0.09007624979410574,0.037456877487983944
141.5,0.1446365300987134,0.05866760193156628
142.0,0.030217676472778125,0.012928997232317352
142.5,0.14579516879602036,0.05910698673044424
143.0,0.020412659492720343,0.008775837936309388
143.5,0.04231656608592549,0.01799964029212655
144.0,0.03467881030474545,0.01480555504824622
144.5,0.006201739568674146,0.002685063819010859
145.0,0.06728684736396819,0.02828115746108748
145.5,0.13627612084372018,0.05548387995534767
146.0,0.003993757261585488,0.0017310124153010421
146.5,0.07418549985218087,0.03107928565194842
147.0,0.04041047721243748,0.017204717007722446
147.5,0.06361795566531919,0.02678566034488534
148.0,0.06936073311458855,0.029124232780263576
148.5,0.07281017623062347,0.030522884399699846
149.0,0.11353874388560271,0.0467053322483681
149.5,0.11332646639374316,0.04662253339444505
150.0,0.07762037188511842,0.03246579291691931
150.5,0.11228916384329131,0.04621770625338374
151.0,0.10208030843275089,0.04221324264498911
151.5,0.050363727837590855,0.02133971586895792
152.0,0.04267034242484555,0.01814702070268765
152.5,0.05548831547956059,0.023453429921421753
153.0,0.0728050249958461,0.03052079907439311
153.5,0.03179010014923275,0.013591356575488668
154.0,0.007343822026030534,0.003177727279683504
154.5,0.1482655176999663,0.06004232320028527
155.0,0.04127090050945529,0.017563731711197204
155.5,0.13300216165599224,0.05423073845507741
156.0,0.12708040294785838,0.051954898575880405
156.5,0.059032944993096144,0.024909470594886053
157.0,0.06452985473135968,0.02715784573044699
157.5,0.05262898793499409,0.022275325710578726
158.0,0.08058654739448233,0.03365955655065943
158.5,0.09464736024670982,0.039274234094129695
159.0,0.013151521014633604,0.005674400759704316
159.5,0.146926409685076,0.05953555312969606
160.0,0.0816001205016098,0.03406672698252857
160.5,0.13016673331177303,0.05314251960339496
161.0,0.08305971526573827,0.03465240241981465
161.5,0.1075501932773659,0.04436341721513635
162.0,0.0606425313046006,0.025569038151721214
162.5,0.05347981640813126,0.022626219387362225
163.0,0.12330475477178264,0.05049759718776113
163.5,0.06664156660372494,0.028018503962348285
164.0,0.07291775480094148,0.030566432119635445
164.5,0.04204357131425825,0.017885878642712783
165.0,0.07914632588972038,0.03308033645109175
165.5,0.05760497589513108,0.02432348544594697
166.0,0.11675137651151986,0.04795649645705183
166.5,0.10672303430783255,0.044038949043494695
167.0,0.027807358278285163,0.01191172256127355
167.5,0.10999138865556089,0.04531960953091091
168.0,0.057601101765999745,0.024321894572204916
168.5,0.06837796021226807,0.02872492029193865
169.0,0.0939269646206324,0.0389883275540254
169.5,0.058749206331847874,0.024793097779539554
170.0,0.0223899967577608,0.009616591622072863
170.5,0.10675728750995367,0.04405239029844807
171.0,0.12885989246864774,0.05264004316178911
171.5,0.030188488305891013,0.012916692610021478
172.0,0.1202172386600277,0.04930225160117428
172.5,0.034186030585692306,0.014598667181435375
173.0,0.02506321470388716,0.010750648758144578
173.5,0.05211080124466608,0.022061479204792928
174.0,0.132410735540848,0.05400397793436716
174.5,0.07007423135415386,0.029413905862105388
175.0,0.05659810134991802,0.023909825947745683
175.5,0.045731634840876424,0.01942024623158008
176.0,0.04007126247798114,0.017063096837884262
176.5,0.0641265842802297,0.026993292982031628
177.0,0.17450544101917345,0.06985503303284947
177.5,0.10826316734819733,0.04464289988356905
178.0,0.06870628410016226,0.028858363093073675
178.5,0.038034995782030886,0.016211995341751415
179.0,0.08393398055310065,0.03500283132171151
179.5,0.019112720926800792,0.00822222264143597
180.0,0.05880627313436503,0.024816505711638088
180.5,0.015099739445650495,0.006508716301217726
181.0,0.12246944774502817,0.05017452886794789
181.5,0.09520657426483135,0.03949604210033951
182.0,0.15256713901790775,0.06166623319897545
182.5,0.06446322675655715,0.027130662775219784
183.0,0.006456611343766163,0.002795057058605434
183.5,0.028516445949809642,0.012211240443138
184.0,0.10843170846995945,0.04470894097934156
184.5,0.12365724095578616,0.05063385477129536
185.0,0.06533892685978705,0.02748779617694957
185.5,0.15817983903457736,0.06377600070075656
186.0,0.09125349525601015,0.03792564774956389
186.5,0.08220016277233827,0.03430759491824379
187.0,0.05942935755902124,0.025072003382691947
187.5,0.07984903792522874,0.03336304569195445
188.0,0.056705972556113766,0.023954162084912387
188.5,0.08633943538509961,0.03596554521768261
189.0,0.0383221672999991,0.01633212593260165
189.5,0.11703225558781233,0.048065714048053834
190.0,0.02677504930656144,0.011475306746448971
190.5,0.16007146414391157,0.06448474399188518
191.0,0.14397982718349478,0.05841836622261998
191.5,0.048057023273604935,0.020384912627997288
192.0,0.10347421180570986,0.042762188153454936
192.5,0.07377805119250049,0.030914522421590634
193.0,0.03128493693548039,0.013378674441650511
193.5,0.049428725150945506,0.020952947611328706
194.0,0.15264514218407949,0.061695624283630485
194.5,0.084447857943102,0.03520867525110468
195.0,0.0635225149947429,0.026746688441355766
195.5,0.043989606873287956,0.018696175198764427
196.0,0.04071144929216498,0.017330332439167574
196.5,0.1223679377015673,0.05013525185657183
197.0,0.0596056819789827,0.025144278471458302
197.5,0.09691962004269492,0.040174804556575086
198.0,0.0553294407301205,0.023388053905967165
198.5,0.08507025916448607,0.035457860009011126
199.0,0.15635728068663027,0.0630920391515428
199.5,0.0717632723627047,0.030098870375526682
200.0,0.07928133725537799,0.03313466738112655
200.5,0.1483085652181668,0.060058604233634336
201.0,0.14169956616914484,0.05755183602835918
201.5,0.09271507657384456,0.038506935231571546
202.0,0.09086681420116714,0.037771730067385795
202.5,0.0786046452731302,0.03286228635094121
203.0,0.08958526037964787,0.03726121958790793
203.5,0.0870626960439002,0.03625459262418643
204.0,0.05035752607012585,0.02133715161310241
204.5,0.09083161906184194,0.03775771799810342
205.0,0.16909309710113804,0.06784909623236351
205.5,0.06152339987155056,0.02592957205178881
206.0,0.010057058608416544,0.004345907979517237
206.5,0.0762361719588752,0.031907584456566995
207.0,0.1515471947684391,0.06128174169885296
207.5,0.07552550896138316,0.03162071529976196
208.0,0.12469688144146943,0.051035490931522556
208.5,0.13057874483837256,0.053300816356561656
209.0,0.1102868361448474,0.04543519073475597
209.5,0.05571712972381912,0.02354756833346226
210.0,0.05333854869888957,0.022567978214128884
210.5,0.06767307650561599,0.028438291264792467
211.0,0.09296626439553252,0.0386067571802846
211.5,0.17502565141777093,0.0700473475844284
212.0,0.12478969683664544,0.05107132952186822
212.5,0.08138717827644239,0.03398121595460401
213.0,0.15972219889196435,0.06435397031558429
213.5,0.09394347550076361,0.03899488240663545
214.0,0.09540905217199283,0.03957632550284675
214.5,0.08167760533014636,0.03409783832165742
215.0,0.04098786205268236,0.017445665654365058
215.5,0.11150057599375088,0.045909692091997974
216.0,0.0992347865080778,0.04109046366512235
