Frequency (Hz),Power,Log Power
0.0,0.12951805352258627,0.05289317680802292
0.1,0.12951807111535152,0.05289318357235987
0.2,0.12951813599243503,0.05289320851729822
0.30000000000000004,0.12951824368691772,0.052893249925325084
0.4,0.12951839128314815,0.052893306675381634
0.5,0.12951858155563473,0.05289337983424712
0.6000000000000001,0.12951881325923648,0.05289346892316248
0.7000000000000001,0.1295190914842985,0.05289357589933047
0.8,0.12951941158747646,0.052893698977395445
0.9,0.12951977743279253,0.05289383964304017
1.0,0.12952018382617456,0.05289399589915456
1.1,0.12952064007935843,0.05289417132603311
1.2000000000000002,0.12952114600139214,0.05289436585023254
1.3,0.12952168973080141,0.052894574911059866
1.4000000000000001,0.12952229180470787,0.05289480640489304
1.5,0.12952293675541166,0.052895054384462625
1.6,0.1295236325996433,0.05289532193212121
1.7000000000000002,0.12952437866762712,0.05289560879030819
1.8,0.12952518151092993,0.05289591747801691
1.9000000000000001,0.1295260329006838,0.0528962448312612
2.0,0.1295269388633959,0.05289659316714498
2.1,0.1295279073189577,0.052896965530752835
2.2,0.1295289298585015,0.052897358688883296
2.3000000000000003,0.12953001555737775,0.05289777613087344
2.4000000000000004,0.1295311597401867,0.052898216059004334
2.5,0.1295323662653866,0.05289867995674832
2.6,0.12953363752438643,0.05289916874350159
2.7,0.12953497024883412,0.05289968116253264
2.8000000000000003,0.12953637908640342,0.052900222845629466
2.9000000000000004,0.129537855711123,0.05290079059144117
3.0,0.12953940956587853,0.05290138803054286
3.1,0.1295410328951522,0.052902012180911846
3.2,0.12954273168697436,0.0529026653447527
3.3000000000000003,0.1295445104986482,0.052903349274155534
3.4000000000000004,0.12954637490240511,0.05290406611141862
3.5,0.12954832035517702,0.052904814109637065
3.6,0.12955035222937392,0.052905595334257614
3.7,0.12955247237765644,0.05290641049741874
3.8000000000000003,0.12955468505435178,0.052907261234645515
3.9000000000000004,0.12955699573380836,0.052908149650517926
4.0,0.12955940169969213,0.052909074700425225
4.1000000000000005,0.12956190596455602,0.05291003754240094
4.2,0.1295645125119787,0.052911039707798306
4.3,0.1295672317958162,0.05291208521562963
4.4,0.1295700560048964,0.05291317106236056
4.5,0.12957300156272275,0.052914303562142564
4.6000000000000005,0.12957605449130918,0.052915477340415545
4.7,0.129579225255047,0.052916696420137146
4.800000000000001,0.12958252315819574,0.0529179643781666
4.9,0.12958594716739943,0.05291928081677903
5.0,0.1295895026058122,0.052920647782132325
5.1000000000000005,0.12959319192502666,0.052922066216312666
5.2,0.1295970216813732,0.052923538639518375
5.300000000000001,0.12960099141107984,0.05292506487289526
5.4,0.12960509999676442,0.052926644486280705
5.5,0.12960937224125835,0.05292828701489573
5.6000000000000005,0.1296137894810034,0.052929985282582644
5.7,0.12961836528836418,0.05293174450673573
5.800000000000001,0.1296231012453755,0.052933565294842694
5.9,0.1296280129501382,0.05293545364294333
6.0,0.12963309107787785,0.052937405965188686
6.1000000000000005,0.12963834757977277,0.05293942685539966
6.2,0.1296437878247627,0.05294151837672164
6.300000000000001,0.12964939666471303,0.052943674704423606
6.4,0.1296552205166339,0.05294591368249983
6.5,0.12966121919610696,0.05294821986090681
6.6000000000000005,0.12966741754263358,0.05295060278798489
6.7,0.12967382739779384,0.052953067014875906
6.800000000000001,0.12968045279770593,0.05295561409184168
6.9,0.1296872923957957,0.05295824349975025
7.0,0.12969434112227934,0.05296095328810196
7.1000000000000005,0.1297015342581683,0.05296371857528177
7.2,0.12970929691597943,0.05296670278639186
7.300000000000001,0.1297170085095865,0.05296966734650358
7.4,0.12972498417326808,0.05297273340151869
7.5,0.12973322584702893,0.052975901695068085
7.6000000000000005,0.12974174950109346,0.052979178364176
7.7,0.12975051466872334,0.05298254785031668
7.800000000000001,0.12975952098637655,0.05298601001157949
7.9,0.12976886387454376,0.05298960152634268
8.0,0.12977848566870295,0.05299330022476581
8.1,0.1297882643302135,0.0529970591920408
8.200000000000001,0.1297984599567716,0.05300097840815778
8.3,0.12980890272973347,0.0530049925911066
8.4,0.1298197568704709,0.05300916486375682
8.5,0.1298308421987429,0.05301342596226526
8.6,0.1298422559451548,0.05301781325801056
8.700000000000001,0.12985404866947975,0.05302234618138656
8.8,0.1298660710660703,0.053026967338186425
8.9,0.12987887802421677,0.05303189000988471
9.0,0.12989158490381575,0.05303677415876853
9.1,0.12990462832215222,0.05304178760606578
9.200000000000001,0.12991813036751648,0.05304697727306387
9.3,0.12993200107690725,0.053052308575759294
9.4,0.1299461337710912,0.05305774050680371
9.5,0.12996093200430914,0.05306342816637687
9.600000000000001,0.12997570459245797,0.05306910589504645
9.700000000000001,0.12999126776425618,0.05307508739806455
9.8,0.13000618944900244,0.05308082227650479
9.9,0.13002347382387291,0.05308746511730598
10.0,0.13003997986874327,0.053093808730529414
10.100000000000001,0.13005758995070718,0.053100576545799964
10.200000000000001,0.13007455346702881,0.05310709577659251
10.3,0.13009328711978144,0.053114295172912065
10.4,0.13011140123270137,0.05312125636481328
10.5,0.13013056180090474,0.053128619584483706
10.600000000000001,0.13015009124918828,0.05313612443270942
10.700000000000001,0.13016874086519184,0.053143291054696666
10.8,0.13018989302728123,0.05315141920492751
10.9,0.1302102188680609,0.05315922968099722
11.0,0.13023345852362447,0.053168159657243794
11.100000000000001,0.13025600969405748,0.0531768249034372
11.200000000000001,0.13027826741333698,0.053185377222029324
11.3,0.13030059444716807,0.053193956004883594
11.4,0.1303235968741816,0.05320279411885325
11.5,0.13034970434761836,0.053212825052243194
11.600000000000001,0.1303743220468975,0.05322228337694781
11.700000000000001,0.13039914233043814,0.053231819327675525
11.8,0.13042813059595293,0.05324295635163522
11.9,0.13044490078340018,0.05324939917241095
12.0,0.13047796446763657,0.05326210139753947
12.100000000000001,0.13049951937687876,0.05327038204447999
12.200000000000001,0.13054365445274074,0.05328733671401441
12.3,0.1305685225212273,0.053296889592487025
12.4,0.13059465063098397,0.05330692627982133
12.5,0.13062641025060887,0.05331912590752686
12.600000000000001,0.13065568796737786,0.05333037187356199
12.700000000000001,0.13068838116016032,0.05334292942587435
12.8,0.13072098731159099,0.05335545318370504
12.9,0.13075278536381346,0.05336766620937294
13.0,0.1307874581128515,0.05338098295987003
13.100000000000001,0.1308234359404103,0.05339480051975366
13.200000000000001,0.13085679485320909,0.053407611872618305
13.3,0.13089417764767244,0.053421968131598545
13.4,0.13093108943828666,0.05343614304352976
13.5,0.13096790955200782,0.053450282288669056
13.600000000000001,0.13100742019891304,0.05346545421004545
13.700000000000001,0.1310461351861871,0.053480320087382155
13.8,0.13108570165834182,0.05349551239425571
13.9,0.1311351801508014,0.05351450986388772
14.0,0.13117158284058703,0.05352848629498923
14.100000000000001,0.13121279804181826,0.05354430989651202
14.200000000000001,0.13124142460349142,0.053555300048398174
14.3,0.13133988539014138,0.053593098448096795
14.4,0.13134720267301142,0.05359590736992233
14.5,0.1313892118847853,0.05361203330376705
14.600000000000001,0.131438365757516,0.053630901074255104
14.700000000000001,0.1314877567743671,0.05364985904717684
14.8,0.13154463815788509,0.05367169105545512
14.9,0.13159416410805325,0.05369069903397672
15.0,0.13164292221225285,0.05370941150182488
15.100000000000001,0.13169443876300907,0.053729181735029816
15.200000000000001,0.13175535910925068,0.05375255965155319
15.3,0.13180643305352732,0.05377215808465008
15.4,0.1318609679268211,0.05379308359211381
15.5,0.13191222765002883,0.05381275147667076
15.600000000000001,0.13196419187862335,0.0538326887643639
15.700000000000001,0.1320351893829805,0.053859927132568874
15.8,0.13209785808634242,0.053883968716251805
15.9,0.13216300837822925,0.05390896090040138
16.0,0.13221992808152908,0.05393079458644613
16.1,0.13228611010143912,0.05395617980120974
16.2,0.1323483709667042,0.0539800596374093
16.3,0.132412205553289,0.05400454170319864
16.400000000000002,0.13248104849634054,0.05403094304484334
16.5,0.1325445892782894,0.05405530957785141
16.6,0.1326235343063516,0.05408558140599339
16.7,0.13269767637743693,0.05411400959728824
16.8,0.13274859862324095,0.0541335335653528
16.900000000000002,0.13282791813198894,0.05416394350711886
17.0,0.13291738350692311,0.05419824067074744
17.1,0.13298102532841533,0.05422263654992003
17.2,0.1330568026416056,0.05425168255133983
17.3,0.1331421505184341,0.05428439469421197
17.400000000000002,0.13321257390099636,0.054311384720198724
17.5,0.1332932779742066,0.05434231279713102
17.6,0.13334868347899634,0.05436354447413269
17.7,0.13337777484412214,0.054374692020674485
17.8,0.13362828147587213,0.05447067204506726
17.900000000000002,0.13360026717732607,0.05445993959792965
18.0,0.1337138318013038,0.05450344525036347
18.1,0.1338839500652966,0.05456860797371103
18.2,0.13382548767732136,0.054546215428987584
18.3,0.1341075389800185,0.05465423742396433
18.400000000000002,0.13406282717537113,0.05463711517395476
18.5,0.1341101937558834,0.05465525404110138
18.6,0.13429612785041292,0.054726449532547065
18.7,0.1343861669006175,0.05476092193335052
18.8,0.13449084591873417,0.054800995960910884
18.900000000000002,0.13472522233821418,0.05489070833996044
19.0,0.13465722396828805,0.054864682478260283
19.1,0.13501392291375378,0.055001188936655884
19.200000000000003,0.13497787266209843,0.05498739467942825
19.3,0.13500760021317623,0.05499876965213053
19.400000000000002,0.13519884398628187,0.05507194019198771
19.5,0.1354307761679574,0.05516066172202828
19.6,0.13503202977996037,0.05500811717708991
19.700000000000003,0.13559313902203501,0.055222759959955674
19.8,0.13522670005763326,0.055082596994284305
19.900000000000002,0.13532302018679715,0.05511944384264374
20.0,0.13472190664250003,0.05488943931867859
20.1,0.13899008535281296,0.056519943661800874
20.200000000000003,0.13597720459208756,0.05536961656936782
20.3,0.13633103677410702,0.05550486878789649
20.400000000000002,0.1362167884085306,0.05546120199749647
20.5,0.13739371211144066,0.0559108229992747
20.6,0.13674616184745678,0.05566349651138
20.700000000000003,0.1377221004510705,0.056036194414677436
20.8,0.13771805034286108,0.056034648393222315
20.900000000000002,0.13573321749673012,0.055276328051124944
21.0,0.13884759881594333,0.05646561045165264
21.1,0.13658632883886604,0.05560242793117386
21.200000000000003,0.13680031613370297,0.055684185692727615
21.3,0.13651526735166847,0.05557527418509627
21.400000000000002,0.13929516658478022,0.05663625490619386
21.5,0.1354813999027123,0.055180024521605184
21.6,0.13726667421410876,0.055862313025484514
21.700000000000003,0.1374152987725791,0.05591906542118409
21.8,0.1398020737749632,0.05682944280117721
21.900000000000002,0.13824197864537824,0.056234598455453116
22.0,0.1386820389053232,0.0564024703242598
22.1,0.13940687200402807,0.056678834450509315
22.200000000000003,0.13859122312708805,0.056367831713219366
22.3,0.13911984451154596,0.056569417733210996
22.400000000000002,0.14079541913764357,0.05720776860242736
22.5,0.13962368758909532,0.05676146766670122
22.6,0.13956383288062965,0.05673865728416354
22.700000000000003,0.14041660888792448,0.05706353369516541
22.8,0.14024044208443578,0.056996440511848656
22.900000000000002,0.13999345303452876,0.056902357196874455
23.0,0.14167117193488393,0.05754103492711684
23.1,0.1397452889074247,0.05680780573845465
23.200000000000003,0.1409942298358278,0.05728344813706115
23.3,0.14136700733585772,0.057425314560345594
23.400000000000002,0.14129051998640962,0.05739620985811537
23.5,0.1416238679901129,0.05752304001903003
23.6,0.14230066087733406,0.057780428055455725
23.700000000000003,0.14265768557511171,0.05791614506548396
23.8,0.14204082111551133,0.05768162761242658
23.900000000000002,0.14238489179748046,0.0578124508638452
24.0,0.14335645587771714,0.05818164831893126
24.1,0.14195915261497175,0.05765056966185503
24.200000000000003,0.14389681589197403,0.05838685110927842
24.3,0.1433610212337707,0.05818338242816152
24.400000000000002,0.14377400665945395,0.058340222572046845
24.5,0.14308909647113163,0.05808008218684035
24.6,0.14443121545210774,0.058589695090681224
24.700000000000003,0.14586043320450678,0.05913172340767729
24.8,0.14642929493930926,0.05934727514568756
24.900000000000002,0.1405768271816648,0.05712454388474818
25.0,0.14261362332443095,0.057899397826538065
25.1,0.14541932316552963,0.05896450536485729
25.200000000000003,0.14536428440516283,0.05894363649724036
25.3,0.144980666308614,0.0587981534126985
25.400000000000002,0.1451299760087872,0.05885478332199068
25.5,0.14532161712522373,0.058927457793538494
25.6,0.14697003119476137,0.059552070510876284
25.700000000000003,0.14758497323288883,0.059784852849698124
25.8,0.1474351644344657,0.059728155190692626
25.900000000000002,0.14745974476644932,0.059737458538311236
26.0,0.14626749997681104,0.05928597906878351
26.1,0.1483349858624341,0.060068596502577176
26.200000000000003,0.1479244071308577,0.059913289937513284
26.3,0.14730564985040778,0.05967913225189971
26.400000000000002,0.14803717280634607,0.0599559505038573
26.5,0.14764621786232515,0.059808029778209655
26.6,0.14934324171461466,0.06044974646152182
26.700000000000003,0.1480060678000891,0.059944183536808186
26.8,0.14954652866497908,0.06052655432082322
26.900000000000002,0.14884946061640744,0.060263124678847285
27.0,0.15025712845272515,0.060794933384858245
27.1,0.150411064139421,0.060853049909105394
27.200000000000003,0.15118528162223405,0.06114522833029565
27.3,0.1519364609680253,0.06142852473650125
27.400000000000002,0.15137242130008027,0.06121582263462907
27.5,0.150376545114716,0.060840018352528134
27.6,0.1522216994839021,0.06153604991965102
27.700000000000003,0.15256141498274903,0.06166407634149402
27.8,0.1527880751835571,0.061749475345172306
27.900000000000002,0.1547075003644091,0.06247198676887023
28.0,0.1544446532531722,0.06237311667032901
28.1,0.15337188444141428,0.0619693604780569
28.200000000000003,0.15477001342831706,0.062495497782548884
28.3,0.15547804147082872,0.06276169662718871
28.400000000000002,0.15505544825055786,0.06260283296516755
28.5,0.16636520089531273,0.06683455376831679
28.6,0.15137591718481888,0.06121714127064844
28.700000000000003,0.16211126758000047,0.06524771203242859
28.8,0.16295289433811389,0.06556212389152641
28.900000000000002,0.16080015751542331,0.06475745836151489
29.0,0.15355430842086162,0.062038045577780615
29.1,0.15772485017172963,0.06360535537504393
29.200000000000003,0.15801324044495105,0.06371352503848694
29.3,0.15941745203820037,0.0642398332668078
29.400000000000002,0.15337112519148194,0.0619690745874704
29.5,0.15638303938645323,0.06310171326938253
29.6,0.15618903546189086,0.0630288464947475
29.700000000000003,0.1616892733009224,0.06508997922740609
29.8,0.15609018401459507,0.06299171374905373
29.900000000000002,0.1610436470215779,0.06484854644341365
30.0,0.1617200031424525,0.06510146734595873
30.1,0.16168623702058466,0.06508884412049781
30.200000000000003,0.16238785738886813,0.06535106455858661
30.3,0.16166556468556267,0.06508111573341348
30.400000000000002,0.16312750582121446,0.06562732611215878
30.5,0.16352568014860344,0.06577597303207919
30.6,0.161833399613102,0.06514385712830774
30.700000000000003,0.16358429915108352,0.06579785245294344
30.8,0.16245454494687112,0.06537597982891298
30.900000000000002,0.16422544403523656,0.06603708651676178
31.0,0.16766582797753046,0.06731857066123749
31.1,0.165442552904678,0.06649087110294238
31.200000000000003,0.16657437555663127,0.06691243268324888
31.3,0.1681440519812438,0.06749640195702081
31.400000000000002,0.1659985835679116,0.06669802285094245
31.5,0.16691898497788596,0.06704070557545587
31.6,0.16681885218453585,0.06700343736225411
31.700000000000003,0.16786471035178463,0.06739253545551245
31.8,0.16757334169337212,0.06728417051635782
31.900000000000002,0.16940699685783644,0.06796568800276871
32.0,0.16742190897507553,0.06722783944329952
32.1,0.1711546569055337,0.06861424964590604
32.2,0.17010618789872847,0.06822527604174601
32.300000000000004,0.17265868733848394,0.06917162526534816
32.4,0.16946875526598004,0.06798862324064942
32.5,0.17295792978473312,0.06928243565346834
32.6,0.17168142283396642,0.06880954417957522
32.7,0.172870253086922,0.06924997163385548
32.800000000000004,0.1739564489507751,0.06965198589695565
32.9,0.1740578223222776,0.06968948643212818
33.0,0.17158305884297506,0.06877308313229293
33.1,0.1727665157153791,0.0692115576998169
33.2,0.1751025502954496,0.07007576880691992
33.300000000000004,0.17470998806939972,0.0699306613931329
33.4,0.17554587316651238,0.07023958120605639
33.5,0.1744906261246387,0.06984955492495769
33.6,0.17806632515979226,0.07116974192819886
33.7,0.17360981200282732,0.06952373178348029
33.800000000000004,0.17836754330853713,0.07128077188945688
33.9,0.17979656991866602,0.07180712918898469
34.0,0.17804379466549933,0.07116143597571903
34.1,0.182982519798257,0.07297832737412895
34.2,0.18056882413823228,0.07209131040854976
34.300000000000004,0.18238691194614645,0.07275961379345494
34.4,0.18596062636082394,0.07407027078365903
34.5,0.1808664003215141,0.07220076561925429
34.6,0.18590959886913058,0.0740515842991832
34.7,0.18345478910205187,0.07315167145940173
34.800000000000004,0.1787173957949942,0.071409693001245
34.9,0.18692301303737324,0.07442255038056803
35.0,0.18876924760899358,0.07509756175426373
35.1,0.1850056306887724,0.07372041395055594
35.2,0.18702733140052646,0.07446071873536445
35.300000000000004,0.18623773921633172,0.07417173665287574
35.4,0.18543333983294014,0.07387713743130986
35.5,0.1989571095582021,0.07880364730621339
35.6,0.23087695128801589,0.09021463940763341
35.7,0.16526028491069816,0.06642294482517755
35.800000000000004,0.21398091110154047,0.08421185785254627
35.9,0.19896280650817885,0.07880571088967335
36.0,0.17443928363708808,0.06983056946358544
36.1,0.17798327164174263,0.07113912314610234
36.2,0.17975840857349565,0.07179308140304023
36.300000000000004,0.18515819865043878,0.07377632521132046
36.4,0.19072752971702603,0.07581239466653344
36.5,0.2158891076005653,0.08489396790279148
36.6,0.18288042059811407,0.07294084327604425
36.7,0.1840869975626741,0.07338361216172279
36.800000000000004,0.18826773954001244,0.07491430655764916
36.9,0.18870035186461406,0.07507239126070567
37.0,0.1883779216814027,0.07495457465215322
37.1,0.19095795837335688,0.07589643086252115
37.2,0.19601620745316245,0.0777370649030457
37.300000000000004,0.19906993238293524,0.07884451284225073
37.4,0.19981799566399194,0.07911537148621635
37.5,0.19474914571481786,0.07727672865801404
37.6,0.19292704482968892,0.07661388457837723
37.7,0.19106696436650084,0.07593617914634294
37.800000000000004,0.19078257134941884,0.07583246955701296
37.9,0.20161785057565618,0.07976637134861123
38.0,0.2023797891125047,0.08004166755333299
38.1,0.2037621149790194,0.08054067100865325
38.2,0.20246091150493511,0.08007096762913063
38.300000000000004,0.19688697200248292,0.07805313975199561
38.400000000000006,0.20667490172262146,0.08159027970341111
38.5,0.2049523264558526,0.0809698645318572
38.6,0.210775926032183,0.08306377725371236
38.7,0.1949945503520863,0.07736592473401932
38.800000000000004,0.20454934677623943,0.08082459644198517
38.900000000000006,0.2056433274012214,0.08121884689876975
39.0,0.19694858011338162,0.0780754938878811
39.1,0.2093052341385726,0.08253593259865442
39.2,0.20429111452408324,0.08073148206235549
39.300000000000004,0.19809373742682473,0.07849079806551222
39.400000000000006,0.2129446232056064,0.08384097367348314
39.5,0.19753928356300504,0.07828976872945231
39.6,0.20682876399299865,0.08164565275797708
39.7,0.22818623389524778,0.08926422529103104
39.800000000000004,0.2226166630120608,0.08729031048277792
39.900000000000006,0.21973162473912694,0.08626428418581089
40.0,0.22550351066390104,0.08831455970052118
40.1,0.21512528659768682,0.08462105857044071
40.2,0.21875244789311105,0.08591550099820579
