Frequency (Hz),Power,Log Power
0.0,0.0010235612374511205,0.0004442996521346346
0.1,0.0010235644061110175,0.00044430102685897487
0.2,0.0010235743958845805,0.00044430536092633866
0.30000000000000004,0.0010235923993719177,0.00044431317174653155
0.4,0.0010236186462045831,0.000444324558945048
0.5,0.0010236528492647248,0.00044433939795559884
0.6000000000000001,0.0010236937997740985,0.00044435716434889163
0.7000000000000001,0.0010237408579417925,0.00044437758055107865
0.8,0.0010237946560039122,0.0004444009208574915
0.9,0.0010238562529533875,0.0004444276447122165
1.0,0.0010239262866651685,0.0004444580288567029
1.1,0.0010240040966587724,0.00044449178674064457
1.2000000000000002,0.001024088824541272,0.0004445285459493348
1.3,0.00102417921872154,0.0004445677634790563
1.4000000000000001,0.0010242761941935438,0.0004446098362993198
1.5,0.0010243803885799556,0.00044465504104180815
1.6,0.0010244928106207907,0.000444703815347679
1.7000000000000002,0.0010246128546933515,0.00044475589646607625
1.8,0.001024739590693449,0.0004448108808703834
1.9000000000000001,0.0010248720642782167,0.00044486835451791737
2.0,0.0010250106265832298,0.00044492846974777814
2.1,0.0010251561715356409,0.0004449916143889129
2.2,0.001025309376658,0.00044505808238298994
2.3000000000000003,0.0010254698733219627,0.0004451277137991795
2.4000000000000004,0.001025636475637131,0.00044519999413804556
2.5,0.0010258085479372449,0.0004452746476147533
2.6,0.001025986264266319,0.000445351749736909
2.7,0.001026170710249446,0.0004454317715009911
2.8000000000000003,0.0010263623005262441,0.0004455148927963706
2.9000000000000004,0.0010265608571516922,0.0004456010364199915
3.0,0.0010267649223551236,0.00044568956991781713
3.1,0.0010269739943486733,0.0004457802755880303
3.2,0.0010271878476971245,0.00044587305562455553
3.3000000000000003,0.001027407973967341,0.0004459685571405708
3.4000000000000004,0.0010276345947979992,0.0004460668762917406
3.5,0.0010278679299636129,0.0004461681084251564
3.6,0.0010281064730583468,0.00044627159998693734
3.7,0.0010283491226028912,0.0004463768731003899
3.8000000000000003,0.001028596377073534,0.00044648414402740494
3.9000000000000004,0.0010288485340062038,0.00044659354185183744
4.0,0.0010291069606146851,0.0004467056597351038
4.1000000000000005,0.0010293701548916582,0.00044681984603225423
4.2,0.0010296386496545823,0.0004469363319035665
4.3,0.0010299102380897452,0.0004470541599259819
4.4,0.0010301871687128795,0.00044717430561155657
4.5,0.0010304670501722023,0.0004472957314765752
4.6000000000000005,0.0010307534574022703,0.0004474199884956506
4.7,0.0010310452629316172,0.00044754658751596345
4.800000000000001,0.0010313379205452488,0.00044767355617366745
4.9,0.0010316348926966091,0.00044780239664306954
5.0,0.0010319383405859445,0.0004479340465523061
5.1000000000000005,0.0010322417741785359,0.0004480656902191187
5.2,0.0010325475023721144,0.0004481983293505587
5.300000000000001,0.001032859572659746,0.00044833371993609764
5.4,0.0010331743509051118,0.00044847028531677354
5.5,0.001033493480877387,0.0004486087386342126
5.6000000000000005,0.0010338150983210006,0.00044874827108691887
5.7,0.0010341396176021778,0.00044888906244494977
5.800000000000001,0.0010344638760075517,0.0004490297405775134
5.9,0.0010347947482820185,0.0004491732880620943
6.0,0.0010351165248587057,0.00044931288937260507
6.1000000000000005,0.0010354540509963594,0.0004494593235105038
6.2,0.0010357920885585494,0.0004496059794782207
6.300000000000001,0.001036129871297879,0.00044975252484271653
6.4,0.0010364682276522842,0.0004498993190176281
6.5,0.0010367980665117094,0.0004500424178732346
6.6000000000000005,0.0010371518721612749,0.0004501959145422509
6.7,0.0010374885542775568,0.0004503419822086198
6.800000000000001,0.0010378342908234505,0.0004504919780377837
6.9,0.001038186021984299,0.0004506445745433376
7.0,0.001038508204527734,0.0004507843515070563
7.1000000000000005,0.001038862904296351,0.0004509382358219061
7.2,0.0010391728241200117,0.00045107269258813827
7.300000000000001,0.0010395682483998574,0.00045124424486456537
7.4,0.001039903061549057,0.0004513895013393979
7.5,0.0010402230892690325,0.00045152834320789714
7.6000000000000005,0.0010405728290423845,0.00045168007539970865
7.7,0.0010409338960034862,0.000451836721758339
7.800000000000001,0.0010412996237226775,0.0004519953900963131
7.9,0.0010415819947757418,0.00045211789470527074
8.0,0.0010419997682851224,0.00045229914261264633
8.1,0.0010423568893404497,0.0004524540768472738
8.200000000000001,0.0010427162318568924,0.0004526099747899587
8.3,0.0010429831234426328,0.00045272576358259853
8.4,0.0010432490404662642,0.00045284112953847006
8.5,0.001043745056067849,0.00045305632182471214
8.6,0.0010440900418084717,0.00045320599098594395
8.700000000000001,0.00104445331863505,0.00045336359552519153
8.8,0.0010450682230028444,0.00045363036638722704
8.9,0.0010446955407357413,0.0004534686814767789
9.0,0.0010452977706519998,0.0004537299535778279
9.1,0.0010453544102485277,0.0004537545261556217
9.200000000000001,0.0010458790336074606,0.000453982129199954
9.3,0.0010464503224945044,0.0004542299775210289
9.4,0.0010465793157931268,0.00045428594003326246
9.5,0.0010469279910720428,0.00045443720944104727
9.600000000000001,0.0010470024677979432,0.0004544695204436386
9.700000000000001,0.0010472296176878666,0.0004545680671974509
9.8,0.0010475445419227988,0.00045470469395388785
9.9,0.0010482819992198094,0.00045502463232095645
10.0,0.0010485489567635662,0.00045514044908496787
10.100000000000001,0.0010487993951187448,0.00045524909914216374
10.200000000000001,0.0010490027889620058,0.0004553373394106581
10.3,0.001049174568423666,0.00045541186409990325
10.4,0.0010502426288800527,0.0004558752304628542
10.5,0.001048831507867277,0.00045526303091985155
10.600000000000001,0.0010513317668432338,0.0004563477405627181
10.700000000000001,0.001049716734971592,0.0004556470771966544
10.8,0.0010516630699845147,0.00045649147255503146
10.9,0.0010489111294402715,0.00045529757389845877
11.0,0.001049616101387946,0.0004556034184137227
11.100000000000001,0.0010503546762061016,0.00045592384094276297
11.200000000000001,0.0010522823679912216,0.00045676014762313324
11.3,0.0010512649702908257,0.00045631876165403166
11.4,0.001051476111898913,0.00045641036298243375
11.5,0.0010512563350128397,0.0004563150153388758
11.600000000000001,0.0010505148204779668,0.00045599331773549576
11.700000000000001,0.001053454037535357,0.0004572684620526299
11.8,0.0010563150964674204,0.00045850969480201953
11.9,0.0010509172941154294,0.0004561679263512132
12.0,0.0010507382824815807,0.0004560902641960348
12.100000000000001,0.001054144464079931,0.0004575679948436797
12.200000000000001,0.0010527018670968584,0.0004569421422220105
12.3,0.001055575973724847,0.00045818903647111043
12.4,0.0010549885650080605,0.0004579341970343306
12.5,0.0010553842772671293,0.0004581058715363117
12.600000000000001,0.0010564861198583693,0.00045858389093607165
12.700000000000001,0.0010576091280589748,0.00045907109220580335
12.8,0.0010582085112785804,0.00045933112593869534
12.9,0.001055964997583471,0.0004583578092009979
13.0,0.001054824857035038,0.0004578631744871941
13.100000000000001,0.001056609054301732,0.00045863722433724926
13.200000000000001,0.0010528173791777894,0.00045699225572381916
13.3,0.0010517655278052631,0.00045653592267235317
13.4,0.0010529294189458075,0.0004570408627997744
13.5,0.0010566416391052818,0.00045865136080066725
13.600000000000001,0.001057419946409638,0.0004589890184536493
13.700000000000001,0.0010577027566652003,0.000459111711631448
13.8,0.0010561727346879693,0.00045844793310217887
13.9,0.0010572840306629263,0.0004589300533416542
14.0,0.001053765235403231,0.0004574034713223797
14.100000000000001,0.0010522032077738583,0.00045672580491435777
14.200000000000001,0.0010589220588853548,0.0004596406880351094
14.3,0.00105662550731796,0.00045864436224929384
14.4,0.0010561070479400971,0.0004584194358071007
14.5,0.0010551547947678203,0.00045800631361364754
14.600000000000001,0.001054984752960714,0.00045793254322794785
14.700000000000001,0.0010610576839617638,0.0004605671961320755
14.8,0.001053705512974805,0.00045737756150340033
14.9,0.0010543449991847796,0.0004576549944143553
15.0,0.0010566843677159844,0.00045866989801290545
15.100000000000001,0.0010559987550565364,0.00045837245442017577
15.200000000000001,0.0010603399084233482,0.0004602558004734335
15.3,0.0010569670779664976,0.00045879254789514334
15.4,0.0010611606270718246,0.00046061185636732974
15.5,0.0010576461263389976,0.0004590871433784815
15.600000000000001,0.0010537190940585106,0.0004573834534846091
15.700000000000001,0.001055001770570122,0.00045793992609299497
15.8,0.0010513605941892992,0.0004563602469714773
15.9,0.0010589857638683162,0.00045966832549093297
16.0,0.0010588052746563726,0.0004595900229363336
16.1,0.0010678768191717957,0.00046352555984387726
16.2,0.0010611909310687226,0.0004606250032747691
16.3,0.0010539236543487163,0.00045747219936757816
16.400000000000002,0.0010526888362891592,0.00045693648896525995
16.5,0.0010804069317300819,0.00046896147963651843
16.6,0.0010669926430199035,0.0004631419764702174
16.7,0.0010645622228005584,0.00046208758212996134
16.8,0.0010588141297642468,0.0004595938645932824
16.900000000000002,0.001057425873978329,0.00045899159004474924
17.0,0.001066829324650182,0.0004630711237969512
17.1,0.0010772164228960747,0.0004675773524679925
17.2,0.001075490767547188,0.0004668287156702336
17.3,0.0010468922521858922,0.0004544217044722488
17.400000000000002,0.0010355132610423243,0.0004494850115072442
17.5,0.0010491400523332086,0.00045539688966283266
17.6,0.0009930742066093623,0.00043107263990022575
17.7,0.001175255447438261,0.0005101072611603838
17.8,0.0011064821430451072,0.00048027343103427666
17.900000000000002,0.0011274968898127018,0.0004893898366648724
18.0,0.0011672763160710544,0.0005066460224680043
18.1,0.0009802212205497415,0.00042549616099860614
18.2,0.001135737543967766,0.0004929646619578577
18.3,0.0010458159084590624,0.000453954742938169
18.400000000000002,0.0010182872819100332,0.00044201153833618007
18.5,0.0010551497634522615,0.0004580041308442058
18.6,0.0010088276761846498,0.00043790744350463744
18.7,0.001198018456497331,0.0005199813933764963
18.8,0.0012441129674079638,0.0005399755709099291
18.900000000000002,0.0007689443694494554,0.000333819968491838
19.0,0.0011156891510716617,0.00048426754601129247
19.1,0.001351953280072721,0.0005867493098098587
19.200000000000003,0.001194941235112781,0.0005186465701986972
19.3,0.0010487714072751598,0.0004552369569107237
19.400000000000002,0.0009585908794199238,0.0004161113209246355
19.5,0.0010218420951806453,0.00044355380091621623
19.6,0.002132971870350737,0.0009253513895616059
19.700000000000003,0.0015294364989186663,0.0006637184036067416
19.8,0.0026614752948893017,0.0011543286062389846
19.900000000000002,0.0028528566530364517,0.0012372159401370258
20.0,0.0015100513669301253,0.000655312322843141
20.1,0.001733551372232668,0.0007522199772874411
20.200000000000003,0.0008351669783285603,0.0003625570333898659
20.3,0.0006429571167279203,0.0002791429990196949
20.400000000000002,0.001146237979370048,0.0004975197458157621
20.5,0.000841065857251177,0.00036511673862432226
20.6,0.0008360996954676835,0.00036296176908590447
20.700000000000003,0.0009328812108820514,0.0004049563034485716
20.8,0.0011133282130293446,0.0004832433451281384
20.900000000000002,0.0011465485723282185,0.0004976544801650923
21.0,0.0009962630634175467,0.00043245616666491506
21.1,0.001167688514956802,0.0005068248294155395
21.200000000000003,0.0012263354839413395,0.0005322644329224825
21.3,0.0011619795251064998,0.0005043483313355656
21.400000000000002,0.0010754556202874084,0.00046681346780792895
21.5,0.001371738702116125,0.000595330323406745
21.6,0.001268932338180347,0.0005507409597263167
21.700000000000003,0.001522443474674361,0.0006606859990329921
21.8,0.0007249700778018535,0.0003147364308668907
21.900000000000002,0.002535422012793783,0.00109972624276488
22.0,0.003107535543132312,0.0013474929303014093
22.1,0.0025645791960392608,0.0011123568385303369
22.200000000000003,0.002343664717073504,0.0010166497757588336
22.3,0.004864329715797551,0.0021074300817167705
22.400000000000002,0.002992748329046511,0.0012977930682101448
22.5,0.0005268106721717291,0.00022873072432713892
22.6,0.00393783175047772,0.0017068202157151922
22.700000000000003,0.0012025814785298582,0.0005219607128889432
22.8,0.0034181373868722538,0.0014819468968790702
22.900000000000002,0.0002584639903372912,0.00011223498104840772
23.0,0.0018438571608238436,0.0008000396374128825
23.1,0.0013485164989502129,0.0005852587473422606
23.200000000000003,0.0021209650221770153,0.0009201479492080964
23.3,0.0011799038613704257,0.0005121236672020221
23.400000000000002,0.0025271742386135674,0.0010961533240727633
23.5,0.0010323221330724402,0.0004481005536543561
23.6,0.000988117789190553,0.000428922225357306
23.700000000000003,0.0009143451280538578,0.00039691361329449596
23.8,0.0007194571388273609,0.00031234391979527036
23.900000000000002,0.0006230748405456814,0.0002705136986707556
24.0,0.002475111672067287,0.0010735992496672998
24.1,0.00205335673344708,0.0008908471978525741
24.200000000000003,0.0007934575294956237,0.0003444575885156086
24.3,0.0016617080980278634,0.0007210717179363135
24.400000000000002,0.0008061077598944938,0.000349947123337989
24.5,0.0028105237471846875,0.0012188829061925532
24.6,0.00215725394446918,0.000935874387342601
24.700000000000003,0.0019215059603085829,0.0008336987132509479
24.8,0.007832987780874318,0.0033885693171696787
24.900000000000002,0.0025058792072012097,0.0010869282246473496
25.0,0.0008045056255605957,0.00034925188511751473
25.1,0.0002166976111258068,9.410038145778499e-05
25.200000000000003,0.00037797021139997336,0.0001641193629731407
25.3,0.00038448235557412126,0.000166946473484501
25.400000000000002,0.0002498223151337801,0.0001084829027580465
25.5,0.0007617556666990982,0.0003307003421613495
25.6,0.0005703256237493263,0.00024761866635718564
25.700000000000003,0.0006779283940571617,0.00029432080771667646
25.8,0.0011259729742901833,0.0004887287534281661
25.900000000000002,0.0006975602091484523,0.00030284093701040006
26.0,0.004864600370029959,0.0021075470563374347
26.1,0.002230666889308769,0.0009676874276498087
26.200000000000003,0.0020062850073230237,0.0008704456184910514
26.3,0.0018214793789212281,0.0007903388685063063
26.400000000000002,0.0014384394798848516,0.0006242574579398474
26.5,0.0007596395745998014,0.00032978203359465156
26.6,0.001640649205649633,0.0007119410335721609
26.700000000000003,0.0019318835960214123,0.0008381969963576722
26.8,0.004952693036657477,0.002145618336908564
26.900000000000002,0.004121100131231323,0.0017860932344757189
27.0,0.0011617485809717974,0.0005042481499693635
27.1,0.001276548080797857,0.0005540442305152178
27.200000000000003,0.0020043506314942968,0.0008696072110162005
27.3,0.00128792967237864,0.0005589808629919911
27.400000000000002,0.0009507735107935897,0.00041271951896019803
27.5,0.0016923543503795616,0.0007343589331498734
27.6,0.0024509954041876487,0.0010631514211634624
27.700000000000003,0.0007821916846237015,0.0003395687458043106
27.8,0.00041819684828391443,0.0001815826175656964
27.900000000000002,0.0007362613328915075,0.00031963658051981645
28.0,0.0021323301670421045,0.0009250732944355632
28.1,0.0017472395262970216,0.0007581543389290695
28.200000000000003,0.0022474126736905485,0.0009749437821356859
28.3,0.001541853741496597,0.0006691028749017969
28.400000000000002,0.0014828748704065746,0.0006435273561327835
28.5,0.0015014533210821318,0.0006515838531282094
28.6,0.001986496366189243,0.0008618686438343579
28.700000000000003,0.003460938676286251,0.0015004715444628595
28.8,0.0048168793576899216,0.002086921924899406
28.900000000000002,0.021655634481131558,0.009304534500347544
29.0,0.007384783860305611,0.0031953867287475733
29.1,0.001078087044985339,0.00046795505180885364
29.200000000000003,0.0010501385179788449,0.0004558300631072736
29.3,0.001965568585669593,0.0008527977486193904
29.400000000000002,0.0019670314478533887,0.0008534318148292147
29.5,0.003066661259641372,0.0013297960864255113
29.6,0.0012660822448699635,0.0005495047468376165
29.700000000000003,0.005027595735774827,0.0021779866433074844
29.8,0.0025326272617179416,0.0010985155656798853
29.900000000000002,0.0023329194403300326,0.0010119940478143386
30.0,0.0014631159570918802,0.0006349587905693353
30.1,0.0006172750869420827,0.0002679964588134451
30.200000000000003,0.001622602707943388,0.0007041163062287035
30.3,0.002284927534277006,0.0009911994409916303
30.400000000000002,0.0024738170820011495,0.0010730384041374814
30.5,0.0008647755781185701,0.000375404964524014
30.6,0.00032617392494283177,0.00014163243859472487
30.700000000000003,0.000575876985877107,0.00025002821138292853
30.8,0.0010299876528536386,0.0004470877461386913
30.900000000000002,0.0012132962953307442,0.0005266084844761968
31.0,0.0009046869131008824,0.000392722915342303
31.1,0.001271181539041694,0.0005517165362114039
31.200000000000003,0.0018389974130343005,0.0007979329550668049
31.3,0.001660228394580005,0.0007204301565071587
31.400000000000002,0.0014174334133363416,0.000615147647381558
31.5,0.0015403953316254677,0.000668470470156898
31.6,0.00106133145218833,0.00046068596612410884
31.700000000000003,0.0029130335558626578,0.0012632753092497648
31.8,0.002165379820541434,0.0009393957995936754
31.900000000000002,0.004169462631099866,0.0018070100950311524
32.0,0.001094791594794619,0.0004752018723830095
32.1,0.003107981594331003,0.0013476860477133349
32.2,0.0016535753876180804,0.0007175455717694867
32.300000000000004,0.0027106414635872794,0.0011756240013307468
32.4,0.001609699457316074,0.0006985215376738296
32.5,0.001730900215965121,0.0007510705857554047
32.6,0.0025356383262805622,0.0010998199489237128
32.7,0.0025910824875571797,0.0011238374766464748
32.800000000000004,0.0025565320694431997,0.001108870941687213
32.9,0.004452421841390316,0.0019293702319944192
33.0,0.0027575297695797214,0.0011959318106034718
33.1,0.0016875070193305714,0.0007322573156112982
33.2,0.0023551184542592906,0.0010216124114413385
33.300000000000004,0.001036445113101768,0.00044988929088961624
33.4,0.004567584133848199,0.0019791600280579438
33.5,0.0040101419900970756,0.0017380998489288765
33.6,0.003402066390776847,0.0014749910720274375
33.7,0.0010375117316516944,0.0004503520375818106
33.800000000000004,0.005419138560598811,0.0023471479421362045
33.9,0.004145497112458966,0.0017966450948087517
34.0,0.008960990744610113,0.003874375521491588
34.1,0.005795030863779501,0.0025094856557858676
34.2,0.007050022081146766,0.0030510433185261428
34.300000000000004,0.0027903354148186934,0.0012101397095533512
34.4,0.0028676519258704317,0.00124362311932544
34.5,0.0019737991822096033,0.00085636522447974
34.6,0.004619471154952491,0.002001591236634285
34.7,0.003215161407827567,0.001394086949561706
34.800000000000004,0.0026848471255580602,0.0011644518023955944
34.9,0.0034743503578115228,0.0015062760358297888
35.0,0.0035277301386468143,0.0015293777002402349
35.1,0.014576825396505315,0.006284938094372555
35.2,0.003648363635574209,0.0015815808549847347
35.300000000000004,0.005342234790047997,0.0023139278060756037
35.4,0.0007559385086700007,0.0003281758981959165
35.5,0.00437061344931033,0.0018939973468280638
35.6,0.0042571580473205195,0.001844935937065785
35.7,0.003932965533641441,0.0017047151289510953
35.800000000000004,0.0004747395153945146,0.00020612782723534106
35.9,0.0037860716321851573,0.001641165190179145
36.0,0.0025772395464255158,0.0011178410594071876
36.1,0.013860956066646573,0.005978398632851918
36.2,0.0010389094485302216,0.00045095842874765863
36.300000000000004,0.0020229698328742365,0.0008776771772630191
36.4,0.002826296553528861,0.0012257136969819817
36.5,0.007381598345332696,0.003194013416598853
36.6,0.006636512325784062,0.00287267890636673
36.7,0.0029262210376091646,0.0012689858870436972
36.800000000000004,0.002621804026705446,0.0011371449863063268
36.9,0.0022599784999871543,0.0009803887797897452
37.0,0.0005030904365612383,0.00021843445895918708
37.1,0.00817472853695048,0.0035358069738766484
37.2,0.004105709962282664,0.0017794367498431417
