Frequency (Hz),Power,Log Power
0.0,0.06681810868523064,0.028090379004454463
0.1,0.06681809236303435,0.028090372359798017
0.2,0.06681801765580997,0.028090341946987542
0.30000000000000004,0.06681789208187196,0.028090290826674035
0.4,0.06681772119108877,0.028090221258165023
0.5,0.06681751819131561,0.02809013861828384
0.6000000000000001,0.06681725505130603,0.02809003149568202
0.7000000000000001,0.06681694633160327,0.02808990581784723
0.8,0.06681658384165108,0.02808975825043812
0.9,0.06681619000701743,0.028089597922747022
1.0,0.06681573765268708,0.02808941377196916
1.1,0.06681524400067104,0.028089212809058194
1.2000000000000002,0.06681471105054795,0.02808899584800826
1.3,0.06681412611699428,0.028088757724666298
1.4000000000000001,0.06681350307888763,0.02808850408901963
1.5,0.06681283574110627,0.028088232419036196
1.6,0.06681212214275176,0.028087941916409228
1.7000000000000002,0.06681137409025523,0.0280876373874499
1.8,0.06681058832423842,0.028087317505248524
1.9000000000000001,0.06680975280278792,0.02808697736755068
2.0,0.06680888031588386,0.02808662218106882
2.1,0.06680797224797067,0.028086252509369358
2.2,0.06680702798903687,0.02808586810408129
2.3000000000000003,0.06680605520467553,0.028085472085812076
2.4000000000000004,0.06680503666780395,0.028085057441414422
2.5,0.06680398388352016,0.02808462885454526
2.6,0.06680290978227676,0.02808419158913855
2.7,0.06680179503679251,0.028083737777041682
2.8000000000000003,0.06680065466865047,0.028083273533488214
2.9000000000000004,0.0667994842509331,0.028082797056245057
3.0,0.06679828981363113,0.028082310800086073
3.1,0.06679708437755885,0.02808182006576895
3.2,0.06679583210840946,0.02808131026506866
3.3000000000000003,0.06679457414768021,0.028080798146715002
3.4000000000000004,0.06679329628813913,0.02808027792689643
3.5,0.0667919883680988,0.028079745468728157
3.6,0.0667906745354413,0.028079210602858513
3.7,0.06678933939195027,0.028078667060599072
3.8000000000000003,0.06678799974738629,0.028078121685251145
3.9000000000000004,0.06678664370608152,0.02807756963401852
4.0,0.06678527581792108,0.02807701275916041
4.1000000000000005,0.06678391212743448,0.028076457592487895
4.2,0.06678253808321762,0.028075898210031154
4.3,0.06678115821571368,0.028075336456150735
4.4,0.06677978654260701,0.02807477803754764
4.5,0.06677840674659798,0.028074216311324517
4.6000000000000005,0.06677704483893848,0.028073661866882066
4.7,0.06677568630414676,0.02807310879485818
4.800000000000001,0.06677433109970263,0.028072557077947792
4.9,0.06677299299930657,0.02807201232357401
5.0,0.066771667852417,0.028071472842031955
5.1000000000000005,0.0667703665690251,0.02807094307492412
5.2,0.06676908301544897,0.028070420525190688
5.300000000000001,0.06676781555676788,0.028069904527261033
5.4,0.06676657076866459,0.02806939775820416
5.5,0.06676536752089714,0.028068907900183872
5.6000000000000005,0.06676419367409718,0.028068430011152376
5.7,0.06676305486958706,0.028067966387812105
5.800000000000001,0.06676194832176775,0.028067515896150558
5.9,0.06676089197928389,0.028067085843372957
6.0,0.06675987114593937,0.02806667024649091
6.1000000000000005,0.06675889575240783,0.02806627314848082
6.2,0.06675798896532213,0.028065903980905468
6.300000000000001,0.06675712454480028,0.028065552061146103
6.4,0.06675632670414983,0.028065227246890333
6.5,0.06675557829535637,0.028064922556948445
6.6000000000000005,0.06675488593797063,0.02806464068629702
6.7,0.06675430313093413,0.028064403415343397
6.800000000000001,0.06675376984944717,0.028064186306994924
6.9,0.06675328725077855,0.02806398983242687
7.0,0.06675289230211119,0.028063829041679228
7.1000000000000005,0.06675262089796256,0.028063718548105698
7.2,0.06675245963176539,0.028063652893685523
7.300000000000001,0.06675230372832684,0.028063589422533022
7.4,0.06675231509554719,0.028063594050337433
7.5,0.06675243612484714,0.028063643323588006
7.6000000000000005,0.06675257072176385,0.028063698120457968
7.7,0.06675288436969877,0.02806382581224998
7.800000000000001,0.06675327860145504,0.028063986311131443
7.9,0.06675384330072942,0.028064216210320726
8.0,0.0667545047980265,0.028064485517563992
8.1,0.06675526533594864,0.028064795145790224
8.200000000000001,0.06675624834005985,0.028065195343547258
8.3,0.06675731133889923,0.028065628108108913
8.4,0.06675850927586026,0.028066115807714218
8.5,0.06676005026643124,0.028066743169213957
8.6,0.06676136897437548,0.028067280035240547
8.700000000000001,0.0667630617340537,0.0280679691824346
8.8,0.06676513282392219,0.028068812351888565
8.9,0.06676649067494438,0.028069365151012455
9.0,0.06676919783927683,0.028070467271344945
9.1,0.06677145796034088,0.028071387392650245
9.200000000000001,0.0667739609807202,0.02807240639878831
9.3,0.06677651069027278,0.028073444410125523
9.4,0.06677918470597984,0.028074533025031254
9.5,0.0667823531143897,0.028075822907947145
9.600000000000001,0.06678580570894067,0.028077228480818686
9.700000000000001,0.06678913248690876,0.028078582828667598
9.8,0.06679293358310566,0.028080130268655735
9.9,0.06679660184281991,0.028081623625204045
10.0,0.06680067981446103,0.028083283770346044
10.100000000000001,0.06680572108679532,0.02808533606711054
10.200000000000001,0.06681136195422194,0.0280876324469211
10.3,0.06681745576710482,0.028090113205792414
10.4,0.06682255392587994,0.028092188628275925
10.5,0.06682579402804703,0.02809350764459207
10.600000000000001,0.06683041729888288,0.028095389729439424
10.700000000000001,0.06683905046623145,0.028098904179074187
10.8,0.06684596903101422,0.028101720615877505
10.9,0.0668492089839652,0.028103039542500916
11.0,0.06685819555641548,0.028106697793691363
11.100000000000001,0.06686763756870978,0.028110541411998754
11.200000000000001,0.06686916116461482,0.028111161628413997
11.3,0.066883965310227,0.02811718796639006
11.4,0.06688686805156446,0.02811836957832839
11.5,0.0668997541403495,0.02812361504869976
11.600000000000001,0.06690274934728165,0.0281248342822892
11.700000000000001,0.06691878237555487,0.02813136065350055
11.8,0.0669198759472404,0.02813180579694829
11.9,0.0669399298906841,0.028139968767125052
12.0,0.06694039216841664,0.02814015693575501
12.100000000000001,0.06695373448808534,0.02814558784794093
12.200000000000001,0.06697355858557764,0.02815365700397814
12.3,0.06697789466966567,0.02815542193390625
12.4,0.06698520895518789,0.028158399074266312
12.5,0.06700442043566462,0.028166218643626468
12.600000000000001,0.06702280719350796,0.028173702397693224
12.700000000000001,0.06702919099629398,0.028176300694572453
12.8,0.06703308361968713,0.028177885039021904
12.9,0.06704295925702577,0.02818190451603713
13.0,0.06706538078885614,0.028191030151664295
13.100000000000001,0.06708705692522761,0.028199852226647355
13.200000000000001,0.06710214264716388,0.028205991931406323
13.3,0.06712091977715613,0.028213633872949718
13.4,0.0671395043194736,0.028221197302497746
13.5,0.06715830609782386,0.028228849007473338
13.600000000000001,0.0671735006423971,0.028235032588528965
13.700000000000001,0.06719226676527582,0.028242669539737263
13.8,0.06720944427168656,0.028249659879192736
13.9,0.06722973707022552,0.02825791783332431
14.0,0.06724834785626489,0.028265491171029732
14.100000000000001,0.06726326485711683,0.028271561291349563
14.200000000000001,0.06729342209855815,0.028283832807611774
14.3,0.06731319677342758,0.02829187928521707
14.4,0.06733441891651888,0.02830051458368158
14.5,0.06735866288418992,0.02831037925366085
14.600000000000001,0.06737772852477286,0.02831813674777832
14.700000000000001,0.06741127615595596,0.028331786388162417
14.8,0.06742686673903571,0.02833812963645391
14.9,0.06745569652940692,0.028349859198621714
15.0,0.06747232815167074,0.02835662572347963
15.100000000000001,0.06750858884130576,0.028371377909126555
15.200000000000001,0.0675290202716402,0.028379689947672433
15.3,0.06755292321001434,0.028389414084274506
15.4,0.06758908931371946,0.0284041266787347
15.5,0.06761535433593278,0.02841481113965256
15.600000000000001,0.06765161331071125,0.02842956065145212
15.700000000000001,0.06767122938084681,0.02843753991420941
15.8,0.06771392930016067,0.028454908527326198
15.9,0.06772915297078644,0.028461100737460054
16.0,0.0677717911823553,0.028478443309989197
16.1,0.0678113301963373,0.028494524702862505
16.2,0.06782856161965824,0.028501532918144994
16.3,0.06789242112363107,0.028527504316492272
16.400000000000002,0.06790970700183485,0.02853453414516416
16.5,0.06795978301202744,0.028554898437091247
16.6,0.06798869123565528,0.02856665404089471
16.7,0.06805194182501624,0.02859237394670499
16.8,0.0680679019894213,0.028598863668104796
16.900000000000002,0.06810669222448612,0.028614636147646408
17.0,0.06815178527390431,0.028632970691657558
17.1,0.06817215560701625,0.028641252884349398
17.2,0.06822875266668546,0.02866426335079958
17.3,0.06827059880352142,0.028681275802787183
17.400000000000002,0.06830904937222035,0.028696907206772503
17.5,0.0683847037134945,0.02872766150922108
17.6,0.06847289143682468,0.028763508017404436
17.7,0.06830138600696542,0.028693791844993977
17.8,0.06854546881653471,0.028793007020424213
17.900000000000002,0.06860698131067766,0.02881800714316239
18.0,0.06878075556845263,0.02888862530954617
18.1,0.06857985775901428,0.028806983671931612
18.2,0.06856816693439202,0.02880223223631397
18.3,0.06907399849897287,0.02900776697446844
18.400000000000002,0.0687878663644512,0.028891514741429196
18.5,0.06888158511340532,0.0289295950307083
18.6,0.06893860976804622,0.028952763951002138
18.7,0.06890161505116421,0.028937733266092613
18.8,0.07036038067594415,0.029530025337557483
18.900000000000002,0.06911861171517862,0.029025890013083738
19.0,0.06921199034430786,0.02906382037178997
19.1,0.06915113559054362,0.029039101573150063
19.200000000000003,0.06941298283362866,0.02914545219632007
19.3,0.06942283914686082,0.029149454880775437
19.400000000000002,0.06948803818005399,0.029175931514888783
19.5,0.06963103507960354,0.029233995383583542
19.6,0.06971271419089423,0.029267157690809457
19.700000000000003,0.06981196346906746,0.029307450204679033
19.8,0.06949260223957165,0.029177784870478958
19.900000000000002,0.07058137644436825,0.02961968423908744
20.0,0.07137429055236558,0.029941220527407504
20.1,0.07042434161955745,0.02955597646154257
20.200000000000003,0.0699399423400372,0.029359400636294757
20.3,0.07031322267452336,0.029510890743880174
20.400000000000002,0.07014672152517527,0.029443325330442523
20.5,0.0698184925303193,0.029310100695342737
20.6,0.06999764608510328,0.029382822270840485
20.700000000000003,0.07062544134754362,0.029637559340304456
20.8,0.07113816972569391,0.029845495555532384
20.900000000000002,0.07072348001484721,0.029677326471973797
21.0,0.07035861672832025,0.02952930962221111
21.1,0.07078797027037667,0.029703483476287422
21.200000000000003,0.07113515644994714,0.029844273816911772
21.3,0.07162721067970912,0.030043732649880986
21.400000000000002,0.07180679667890076,0.0301165067202659
21.5,0.07094364516766573,0.029766618136573733
21.6,0.0716084138365933,0.03003611485447929
21.700000000000003,0.07165254206584784,0.030053998487745048
21.8,0.07145878126866449,0.02997546850720791
21.900000000000002,0.07126985523920093,0.02989888435100763
22.0,0.07201159559937681,0.030199483003754683
22.1,0.07070036027861597,0.02966794881055082
22.200000000000003,0.07200267874564364,0.03019587058342837
22.3,0.07211621960033562,0.03024186632251488
22.400000000000002,0.07150966767236579,0.02999609380791778
22.5,0.0729449704206247,0.030577448288854205
22.6,0.07178200175311578,0.030106459737881983
22.700000000000003,0.0722389537463707,0.03029158081299197
22.8,0.07239078780849734,0.03035307459364695
22.900000000000002,0.07401776356439416,0.031011464374893924
23.0,0.07270389297358713,0.030479856733044177
23.1,0.07371627826932127,0.030889537359411738
23.200000000000003,0.07243213308077623,0.03036981818905604
23.3,0.07397157195900174,0.03099278573529035
23.400000000000002,0.07246660235165095,0.030383776716691964
23.5,0.07436514946516766,0.03115191213231813
23.6,0.07299531023704615,0.030597823790160524
23.700000000000003,0.07460176812676905,0.031247550812116203
23.8,0.07384369380571196,0.030941071067571376
23.900000000000002,0.07400268843020534,0.031005368485456604
24.0,0.07544753751054555,0.031589229483688946
24.1,0.07316922916358279,0.03066821171137725
24.200000000000003,0.07425846083900482,0.03110878286440897
24.3,0.07538683864558784,0.03156471696667869
24.400000000000002,0.07399770181829832,0.031003352044449876
24.5,0.07472717741238784,0.03129823133814602
24.6,0.07613542820103568,0.031866929340931195
24.700000000000003,0.07639588981418306,0.0319720307542699
24.8,0.07644576447115331,0.031992153263763166
24.900000000000002,0.07252227885994385,0.030406322288410732
25.0,0.07546562995480294,0.03159653563516376
25.1,0.07609946346769135,0.03185241486084682
25.200000000000003,0.07490072519371949,0.03136835588747035
25.3,0.07479375382225269,0.031325133860487936
25.400000000000002,0.07634208820440318,0.031950322824658116
25.5,0.07755433885181537,0.032439179963590775
25.6,0.07717257419786194,0.03228528734422594
25.700000000000003,0.07576357075083694,0.031716833411371236
25.8,0.07552680229078206,0.03162123754259008
25.900000000000002,0.07597550491654192,0.0318023845267746
26.0,0.07328782106430855,0.03071620131184988
26.1,0.07615425164015686,0.031874525823707235
26.200000000000003,0.07771955351961106,0.03250576251622844
26.3,0.07925071926041834,0.033122346761454806
26.400000000000002,0.07892435695686814,0.032990997502374324
26.5,0.07867380217274612,0.03289013111983013
26.6,0.07959780939469248,0.03326199466109789
26.700000000000003,0.07977972717040367,0.033335169346858554
26.8,0.07958455174038352,0.03325666141439015
26.900000000000002,0.07914918675516942,0.03308148778377134
27.0,0.07961300159803868,0.033268106051470465
27.1,0.07963395465609208,0.03327653472838994
27.200000000000003,0.08054525568479293,0.03364296083757703
27.3,0.08031698113978152,0.033551202673695234
27.400000000000002,0.07978731353748879,0.03333822062269358
27.5,0.08089572858025419,0.03378380062640079
27.6,0.08034706057289015,0.033563294633913526
27.700000000000003,0.07999762353434878,0.033422799850788304
27.8,0.0794178046744081,0.03318957734608841
27.900000000000002,0.08159754716311313,0.03406569370967902
28.0,0.08177344580796751,0.0341363166506827
28.1,0.08146304262187946,0.03401168266588311
28.200000000000003,0.08078797519848334,0.03374050409872975
28.3,0.082582180157991,0.034460874110347366
28.400000000000002,0.08256093198290977,0.03445234999465559
28.5,0.08268910096044989,0.034503764915717786
28.6,0.08257142820130181,0.03445656077623399
28.700000000000003,0.08331747591249959,0.03475574917542522
28.8,0.08407796857653477,0.03506051846144759
28.900000000000002,0.08569684108881137,0.0357085742194121
29.0,0.0798358870189417,0.03335775661856546
29.1,0.08327450136347504,0.03473852063428613
29.200000000000003,0.08472639107911377,0.03532020654437582
29.3,0.0835148828110607,0.034834881025775186
29.400000000000002,0.08404525079186599,0.035047411131369825
29.5,0.08644381580896539,0.036007272198147436
29.6,0.086291825979238,0.035946511613017686
29.700000000000003,0.08766230538965947,0.03649407765019008
29.8,0.08919818263365109,0.037106908032565736
29.900000000000002,0.08837944275986843,0.03678033025925768
30.0,0.09020735474925572,0.03750910753596651
30.1,0.0887880770689523,0.036943356416885884
30.200000000000003,0.0854895689110741,0.03562565442689475
30.3,0.08508106270264676,0.035462184054952994
30.400000000000002,0.08429594072157195,0.035147831908368565
30.5,0.08395694019566607,0.0350120303510331
30.6,0.0849936938789431,0.035427214017233935
30.700000000000003,0.08854181295392732,0.036845115771596215
30.8,0.09308063590235678,0.038652200774691774
30.900000000000002,0.08962111165285283,0.037275509202992926
31.0,0.08768989295626074,0.036505092995616786
31.1,0.08489116539665262,0.035386172619171326
31.200000000000003,0.08646445981838377,0.036015524345258836
31.3,0.09311854642314596,0.03866726283318994
31.400000000000002,0.09297354275698706,0.03860964925645863
31.5,0.08790626446286812,0.03659147754943206
31.6,0.08451201765323756,0.035234368864337416
31.700000000000003,0.09174447738275973,0.03812100370923816
31.8,0.09415699607968259,0.039079641594521104
31.900000000000002,0.0903139619385983,0.03755157344881518
32.0,0.0890440632926442,0.037045451893249086
32.1,0.08706167018223988,0.03625418278005315
32.2,0.10193433395794643,0.042155714979083735
32.300000000000004,0.08958111836681402,0.03725956863244601
32.4,0.08656960207343559,0.03605755102309178
32.5,0.10181937923245003,0.042110406646579744
32.6,0.0992995482361771,0.04111604949356788
32.7,0.08485060982803001,0.035369937452510984
32.800000000000004,0.0986651096946876,0.040865332845933224
32.9,0.10356128808614709,0.04279645742381333
33.0,0.08805355842773692,0.03665027363158848
33.1,0.09842857986203096,0.04077182422405392
33.2,0.09630611517370792,0.03993183660129983
33.300000000000004,0.09177229277107363,0.03813206849227298
33.4,0.11201210549645406,0.046109515053317895
33.5,0.09191073508861838,0.03818713576521055
33.6,0.09891952984253677,0.04096589167293051
33.7,0.10014611346818926,0.04145036884811384
33.800000000000004,0.09677339824469575,0.040116908287981694
33.9,0.10113899353438549,0.041842142146184716
34.0,0.08940046381133393,0.03718755583766412
34.1,0.10728609761257454,0.04425984722133695
34.2,0.09469726203879548,0.039294031866232926
34.300000000000004,0.10001301649278806,0.04139782421053911
34.4,0.08952070271184279,0.037235486980705355
34.5,0.10938170404274876,0.04508099920389792
34.6,0.09631762903835905,0.03993639771936367
34.7,0.10926302497682847,0.04503453690840592
34.800000000000004,0.09533706558997758,0.03954778419895214
34.9,0.11797554533669774,0.04843230387107969
35.0,0.09244796533627876,0.03840076014542742
35.1,0.10726058128280741,0.04424983921263487
35.2,0.09294481883140837,0.03859823561668381
35.300000000000004,0.11304641203388235,0.04651327401122086
35.4,0.09933405889442852,0.04112968322353364
35.5,0.10531852621350882,0.0434874492814573
35.6,0.12033217311986495,0.04934680799566323
35.7,0.09437335354132313,0.03916551004229606
35.800000000000004,0.11847138022059485,0.048624875718038404
35.9,0.09379440997606636,0.03893569950785407
36.0,0.101876323043004,0.042132851109018106
36.1,0.11789089982717066,0.04839942079990824
36.2,0.09295804131162493,0.0386034896929741
36.300000000000004,0.10013919265958005,0.041447636776067574
36.4,0.1168485676641135,0.04799429157018119
36.5,0.09376300775046016,0.03892323097725395
36.6,0.10587709309840207,0.04370686227135673
36.7,0.12352560678512724,0.05058297507179075
36.800000000000004,0.10918015491450711,0.04500209072170693
36.9,0.09380917004285484,0.038941559998865734
37.0,0.12279237256634283,0.0502994536920062
37.1,0.12509880673665416,0.05119066407956459
37.2,0.10160885175753064,0.0420274169493082
37.300000000000004,0.1003619946178411,0.04153558188777224
37.4,0.12117217349831627,0.04967231041709358
37.5,0.12856263662201545,0.05252566796353674
37.6,0.10934838529384483,0.04506795557244089
37.7,0.09477522511106494,0.03932496071534324
37.800000000000004,0.1126177460915057,0.046345982593981316
37.9,0.12918620241429415,0.05276556284014471
38.0,0.1279461235624667,0.05228835603178637
38.1,0.10643330277612731,0.043925239221858176
38.2,0.09248391602817282,0.03841505183776318
38.300000000000004,0.11920652292127443,0.048910232631430385
38.400000000000006,0.1305957752042015,0.05330735826107974
38.5,0.1340407218046498,0.05462864973988816
38.6,0.12931625849793,0.052815580620068275
38.7,0.12433827154481795,0.05089699394059315
38.800000000000004,0.10700696939258378,0.044150355078554304
38.900000000000006,0.0983104625083743,0.0407251207112833
39.0,0.10679780934027652,0.04406829088057761
39.1,0.1283751460246451,0.05245351167047451
39.2,0.13815647969971437,0.056201975238553845
39.300000000000004,0.15103475556590729,0.06108843737662261
39.400000000000006,0.16321716160264974,0.06566080095508514
39.5,0.16402759478231504,0.06596327594929616
39.6,0.15025216542357572,0.06079305952485789
39.7,0.13493830842765953,0.05497225532860773
39.800000000000004,0.13087155181485757,0.053413279102304055
