Frequency (Hz),Power,Log Power
0.0,0.0048454487590701145,0.0020992698036429525
0.2,0.004845486644587487,0.0020992861777737767
0.4,0.004845613522138237,0.002099341014280876
0.6000000000000001,0.0048458179832998605,0.0020994293824281806
0.8,0.004846102845469026,0.002099552499874092
1.0,0.004846474598176907,0.0020997131713633614
1.2000000000000002,0.004846929627850179,0.002099909835069168
1.4000000000000001,0.004847464059515127,0.0021001408161812805
1.6,0.004848085478184311,0.0021004093928809133
1.8,0.004848788860741886,0.002100713394113441
2.0,0.004849575994585582,0.0021010535923152163
2.2,0.004850448604833474,0.0021014307329937747
2.4000000000000004,0.004851404493577863,0.002101843866122311
2.6,0.004852449104017779,0.0021022953441338465
2.8000000000000003,0.00485358371344276,0.0021027857189491526
3.0,0.004854801883241165,0.002103312207692737
3.2,0.004856106411355231,0.0021038760194918827
3.4000000000000004,0.004857505962262115,0.002104480898945638
3.6,0.004858989649028829,0.0021051221406103164
3.8000000000000003,0.0048605713600317286,0.002105805746794904
4.0,0.004862240918865516,0.002106527319127394
4.2,0.004864003473907034,0.0021072890825076505
4.4,0.004865864604668723,0.0021080934481417196
4.6000000000000005,0.004867818792396502,0.0021089380306392154
4.800000000000001,0.004869869648389057,0.0021098243905317343
5.0,0.004872018324872915,0.0021107530255429414
5.2,0.00487427586203291,0.0021117287068357126
5.4,0.004876626317999923,0.002112744544226706
5.6000000000000005,0.004879075067283547,0.0021138028602207203
5.800000000000001,0.00488162867517301,0.002114906491924964
6.0,0.004884293924882304,0.002116058370587709
6.2,0.004887075155740279,0.002117260371206425
6.4,0.004889948791658722,0.002118502304224328
6.6000000000000005,0.004892939487789457,0.0021197948247589663
6.800000000000001,0.004896010146795912,0.0021211218996864396
7.0,0.0048992494658539835,0.002122521861583384
7.2,0.0049025754566861725,0.002123959276404507
7.4,0.00490602629365788,0.002125450641754789
7.6000000000000005,0.004909610389609062,0.0021269995928783433
7.800000000000001,0.004913263016416051,0.0021285781555345166
8.0,0.004917072289070928,0.002130224410011836
8.200000000000001,0.004920977723798544,0.0021319122164016368
8.4,0.004924832248548355,0.002133578014664274
8.6,0.004929639831566948,0.0021356556842719657
8.8,0.0049338272316197815,0.0021374653243457463
9.0,0.004938187301956651,0.0021393495781433787
9.200000000000001,0.0049426181439630994,0.00214126440834461
9.4,0.004947650334318114,0.0021434391066725515
9.600000000000001,0.004952309241284784,0.002145452478111946
9.8,0.004957616018514623,0.002147745818762259
10.0,0.00496242264732232,0.002149823008230156
10.200000000000001,0.004964017366578453,0.002150512165563748
10.4,0.004974168693545395,0.0021548990321016218
10.600000000000001,0.004978936030964767,0.002156959207863633
10.8,0.00498428066070821,0.002159268845359606
11.0,0.004990727958158589,0.0021620549752308536
11.200000000000001,0.004996181157285176,0.0021644115023093297
11.4,0.005001166409246883,0.002166565801090354
11.600000000000001,0.005009915321112783,0.0021703464808891493
11.8,0.005008015489393727,0.002169525506688389
12.0,0.0050312923172820875,0.0021795840143696826
12.200000000000001,0.005031359817068369,0.0021796131824004875
12.4,0.005039313733170103,0.0021830502176430648
12.600000000000001,0.005045385785605722,0.002185674046248113
12.8,0.005052635561219836,0.0021888067666536812
13.0,0.005061078846253335,0.0021924551892009846
13.200000000000001,0.005068058558204813,0.002195471164970326
13.4,0.005074663188858464,0.0021983250465548495
13.600000000000001,0.005097975945872724,0.002208398411929097
13.8,0.0050960715316760085,0.0022075755296029256
14.0,0.005099779816138883,0.002209177848579511
14.200000000000001,0.005111250968036882,0.0022141344007962733
14.4,0.00511818082616233,0.0022171286850273344
14.600000000000001,0.005127746919385366,0.002221262011644601
14.8,0.005136619530108777,0.002225095662523174
15.0,0.005150185646399806,0.002230957203703225
15.200000000000001,0.005146977921235454,0.0022295712421015277
15.4,0.005179264515982199,0.0022435211071962714
15.600000000000001,0.005170739858118238,0.0022398379556431217
15.8,0.005183515509605075,0.0022453577737833897
16.0,0.005196035844565233,0.0022507672123952905
16.2,0.005201749423312231,0.0022532357544320335
16.400000000000002,0.005214931514315836,0.0022589310010315065
16.6,0.005225830707364689,0.002263639878295996
16.8,0.005226968721670358,0.0022641315419982466
17.0,0.0053950881198513035,0.0023367591418522854
17.2,0.005268981489532049,0.002282282201045912
17.400000000000002,0.005255305750773519,0.002276373993006276
17.6,0.005339877699676138,0.002312909573172902
17.8,0.005298194767066519,0.0022949026848399366
18.0,0.005289255887589322,0.002291041021394118
18.2,0.005324396810958488,0.0023062219678572048
18.400000000000002,0.005384101584651994,0.0023320133282525566
18.6,0.005376396584387018,0.00232868499640868
18.8,0.00534380341464456,0.002314605430521655
19.0,0.005205975686538395,0.0022550616952849473
19.200000000000003,0.005224204552574087,0.0022629373191277572
19.400000000000002,0.00526985648299423,0.002282660213969739
19.6,0.005247667122092586,0.002273073909066877
19.8,0.00452976406090468,0.001962809352963784
20.0,0.0058260273774884104,0.0025228695034125474
20.200000000000003,0.006244811549499974,0.0027036540504778587
20.400000000000002,0.006355325537180149,0.0027513491829450273
20.6,0.004223604014032122,0.001830425136883552
20.8,0.005570987070791131,0.0024127345100129556
21.0,0.008094273409020851,0.003501147691721849
21.200000000000003,0.005775751498029017,0.002501160895619613
21.400000000000002,0.005755469892413654,0.002492403199681772
21.6,0.005577335995756898,0.0024154765286368753
21.8,0.007521726848481276,0.0032544203205053302
22.0,0.0067144957287391645,0.0029063220828072214
22.200000000000003,0.005627618477989407,0.0024371922712576304
22.400000000000002,0.005027739051518316,0.0021780485731812474
22.6,0.005220955103050673,0.00226153343303767
22.8,0.00655653057131861,0.0028381709045055964
23.0,0.00520252026510052,0.002253568794249023
23.200000000000003,0.005958078605577052,0.0025798826984161933
23.400000000000002,0.006504741199537679,0.0028158249990866985
23.6,0.0049869970883181115,0.0021604427223543233
23.8,0.0065482859435617245,0.002834613616965638
24.0,0.0067056891371098225,0.002902522921382555
24.200000000000003,0.005752330732620357,0.0024910476794341393
24.400000000000002,0.006524054465797651,0.0028241583572409185
24.6,0.006056031627091479,0.002622169138204767
24.8,0.006066717578232185,0.002626782027369936
25.0,0.006301121499912096,0.002727956701508069
25.200000000000003,0.007278315032816221,0.00314948443933569
25.400000000000002,0.008449935195183797,0.003654342401857181
25.6,0.004573347747304268,0.0019816517452690917
25.8,0.0050029511674553094,0.0021673370538800667
26.0,0.003524993000144608,0.0015281931532336198
26.200000000000003,0.006063926166161339,0.002625577041140097
26.400000000000002,0.005958497416101792,0.002580063508199273
26.6,0.0054149971158100035,0.002345359026196285
26.8,0.006780569516664653,0.002934825238340276
27.0,0.005144590428907674,0.00222853967557666
27.200000000000003,0.00571630337162172,0.0024754904056932805
27.400000000000002,0.0035052681093124174,0.001519656748565634
27.6,0.0051398163784753615,0.002226476938829498
27.8,0.006129296138469351,0.002653794826540497
28.0,0.005742431880742095,0.0024867732295794217
28.200000000000003,0.006009979814477035,0.002602289026926266
28.400000000000002,0.006829587556750407,0.002955969613533575
28.6,0.006546993972373759,0.0028340561709636145
28.8,0.012119341911565176,0.005231724438412281
29.0,0.00622175967498479,0.0026937047653139926
29.200000000000003,0.006012456210303039,0.0026033580856235903
29.400000000000002,0.009061411714548296,0.0039175983054352175
29.6,0.005066103369967278,0.0021946263184135875
29.8,0.007562576989401056,0.0032720285076715326
30.0,0.007808360675080404,0.0033779568972962686
30.200000000000003,0.008436028824758272,0.003648353506057423
30.400000000000002,0.008428469928892611,0.003645098169106637
30.6,0.006944640564802301,0.0030055947262994146
30.8,0.005478252467752669,0.002372681660368219
31.0,0.008443003197006117,0.003651357088656027
31.200000000000003,0.005718873617354521,0.002476600303294466
31.400000000000002,0.005765006634894325,0.002496521233460815
31.6,0.006617886321359495,0.002864642991037626
31.8,0.00780809013562142,0.003377840313812185
32.0,0.0020833176240488247,0.0009038321899728485
32.2,0.01577534816461829,0.006797668734764587
32.4,0.008279199899700013,0.003580808087722912
32.6,0.012596589852569394,0.005436460468652028
32.800000000000004,0.009348763065414325,0.004041255140355115
33.0,0.00797914387658083,0.003451546203731941
33.2,0.00686456951687682,0.0029710587691506004
33.4,0.007971840987260543,0.0034483996941614015
33.6,0.01081322887638259,0.004670917053199353
33.800000000000004,0.01761365705801134,0.007582926866772793
34.0,0.011974058495215833,0.005169379700636597
34.2,0.012417744279149403,0.005359748275022678
34.4,0.009812264253577228,0.004240640933946517
34.6,0.010455095347122037,0.004517018221158057
34.800000000000004,0.00491724141036788,0.00213029749906753
35.0,0.007759563580691963,0.003356928274469954
35.2,0.0074731501401164345,0.0032334807174950134
35.4,0.005717170537624337,0.00247586487038703
35.6,0.022749938438226956,0.009769462029185168
35.800000000000004,0.017972641502966034,0.007736106287620069
36.0,0.023345986502089727,0.010022490627944209
36.2,0.012001673315966705,0.005181230597940403
36.4,0.010839160658522686,0.004682058464005937
36.6,0.014776833450723214,0.006370544064712537
36.800000000000004,0.013527863837298326,0.005835692786738797
37.0,0.010555781852429596,0.004560291213091609
37.2,0.031254858501701545,0.013366007633626501
37.4,0.034439239607134124,0.014704986371202636
37.6,0.030642940062950576,0.0131082326757101
37.800000000000004,0.0175459129884449,0.007554014268430864
38.0,0.007203387990698645,0.003117177964768961
38.2,0.011655710959937697,0.005032737533056158
38.400000000000006,0.01568392824113979,0.006758580411616137
38.6,0.006439533138921553,0.0027876876072352756
38.800000000000004,0.02577739323455505,0.011053123564133894
39.0,0.031129724793449307,0.01331330661995429
39.2,0.0372627407203929,0.015888777982167174
39.400000000000006,0.041354855944765644,0.017598746530530715
39.6,0.024207849219777325,0.010388099812939035
39.800000000000004,0.01615364779067136,0.006959380529149332
40.0,0.018923127895339703,0.008141420129884515
40.2,0.014598660013286314,0.006294284406360887
40.400000000000006,0.01571567874579797,0.006772156341161804
40.6,0.04942325909570147,0.0209506855388738
40.800000000000004,0.06556720282547822,0.027580844848825753
41.0,0.05256177067088477,0.022247592274279016
41.2,0.024679284760601838,0.010587956461136805
41.400000000000006,0.017261494962441594,0.0074326060412258374
41.6,0.03887750799689778,0.016564343767847687
41.800000000000004,0.01438753563671082,0.0062039041442679506
42.0,0.010166832955847869,0.004393105118002718
42.2,0.047496623936043425,0.020152631916796265
42.400000000000006,0.07235859555828092,0.030340037250693477
42.6,0.05704249304546991,0.024092446270744177
42.800000000000004,0.05646891274284076,0.023856722190151558
43.0,0.019501422523685776,0.008387836091359506
43.2,0.018752028705838378,0.008068486587172956
43.400000000000006,0.03242933461980987,0.0138603357425406
43.6,0.018442271449259487,0.007936416839787365
43.800000000000004,0.0167134111227037,0.007198552226434271
44.0,0.06112220092377443,0.025765400989813954
44.2,0.08870679748545793,0.03691093450395109
44.400000000000006,0.08029137281909483,0.033540907839515625
44.6,0.03364770617300369,0.014372545203608925
44.800000000000004,0.004421336778659975,0.0019159297943795242
45.0,0.03531457275183227,0.015072327042314312
45.2,0.01002807408513761,0.00433344531809983
45.400000000000006,0.017158997837511996,0.007388845239598912
45.6,0.08136556027270886,0.0339725338897852
45.800000000000004,0.07453165085457313,0.031219212371940575
46.0,0.06550960807544585,0.027557370254194746
46.2,0.09506158735447905,0.0394385450172795
46.400000000000006,0.03139523120357551,0.013425119055609357
46.6,0.011641557756171199,0.005026661650493382
46.800000000000004,0.050559903657973894,0.02142082122209458
47.0,0.04313193532190803,0.01833924146444566
47.2,0.045714139825437226,0.01941298045518914
47.400000000000006,0.14720932461185307,0.05964266831938023
47.6,0.19640310484218454,0.07787753141885785
47.800000000000004,0.1707195864501137,0.06845288427734454
48.0,0.05074425866121373,0.021497025669084676
48.2,0.032370892739319715,0.013835751295213087
48.400000000000006,0.07139829094617788,0.029950949267346254
48.6,0.04236097889655823,0.01801814506149287
48.800000000000004,0.027354745460958313,0.011720431322666099
49.0,0.164737599168207,0.06622809525978325
49.2,0.13166861250204792,0.05371927064045943
49.400000000000006,0.11347668358509644,0.046681127255686246
49.6,0.11897146721914112,0.048819012545091044
49.800000000000004,0.02125346247008992,0.009133541980231696
50.0,0.01794448410451703,0.0077240934187089915
50.2,0.058120385800215245,0.02453508160693916
50.400000000000006,0.0331465662414338,0.01416193661608548
50.6,0.0755907134906949,0.0316470439257919
50.800000000000004,0.17252824205542466,0.06912331213007411
51.0,0.21262940357730598,0.08372809470593355
51.2,0.2056396412928904,0.08121751909400471
51.400000000000006,0.049375965773933696,0.020931113177273156
51.6,0.032135669233344565,0.013736786948978764
51.800000000000004,0.07106795596356397,0.029817026353533678
52.0,0.05257226434182267,0.022251922016050807
52.2,0.03815175715708428,0.016260843376126675
52.400000000000006,0.2032131824836507,0.08034258143286041
52.6,0.19158148932038713,0.07612374802701606
52.800000000000004,0.13424650332938518,0.05470744909115648
53.0,0.17056661501085868,0.06839613371689593
53.2,0.040827643812695415,0.017378818330509513
53.400000000000006,0.02638196002786182,0.011309010154474435
53.6,0.05685613294281314,0.02401587196065632
53.800000000000004,0.061628953108722725,0.02597275424587327
54.0,0.13261017123727367,0.05408045742505693
54.2,0.2330794351512914,0.09099105480875692
54.400000000000006,0.23282077291936062,0.09089994359505191
54.6,0.24052035895201224,0.09360389614386826
54.800000000000004,0.1012739394634386,0.041895362204547315
55.0,0.0562748494177133,0.023776939082527034
55.2,0.10132610533481781,0.041915933665209376
55.400000000000006,0.05559206393348284,0.023496116482786298
55.6,0.05717024536011608,0.02414493117385818
55.800000000000004,0.25277588290101183,0.09787338422230864
56.0,0.18019908992145692,0.07195527540868978
56.2,0.12437511950896547,0.05091122685045505
56.400000000000006,0.17999983358804358,0.07188194605883765
56.6,0.02854703943153591,0.012224158450181818
56.800000000000004,0.024159808627293028,0.010367728700216964
57.0,0.08113648566556107,0.03388052395306636
57.2,0.02644794256112696,0.011336928541743434
57.400000000000006,0.11445399849150038,0.04706214673853846
57.6,0.17811231754431828,0.07118669670272208
57.800000000000004,0.18144415990127147,0.07241319984071813
58.0,0.22650222353966182,0.08866833988046413
58.2,0.16650449515601012,0.0668864166983004
58.400000000000006,0.052090002365011906,0.022052893675647278
58.6,0.10981269253311929,0.04524968737810549
58.800000000000004,0.06410368789421263,0.026983948340868428
59.0,0.0324738923287425,0.013879078671377266
59.2,0.2606654113866811,0.10059983735035076
59.400000000000006,0.15127255682866772,0.0611781523994762
59.6,0.20477484275966404,0.08090589032680481
59.800000000000004,0.15752296334974805,0.06352961546291382
60.0,0.11221961165158288,0.04619054867737789
60.2,0.028645169803932877,0.01226559111659008
60.400000000000006,0.054470214919898084,0.023034316954954476
60.6,0.05254955820287755,0.022242553293781202
60.800000000000004,0.15156216964744015,0.06128738928764566
61.0,0.19126591319569786,0.07600871508765993
61.2,0.19663470367325914,0.0779615936884192
61.400000000000006,0.26603540571003437,0.10244585124965036
61.6,0.07779313159372708,0.03253541165892262
61.800000000000004,0.02771013058179919,0.011870637576755223
62.0,0.10670826934376258,0.04403315501463955
62.2,0.011041359485288374,0.00476892198945113
62.400000000000006,0.03341141616950218,0.01427325491821039
62.6,0.2642480581550273,0.10183229524252632
62.800000000000004,0.18545331708936272,0.07388445622253313
63.0,0.1556567284531633,0.06282885218348111
63.2,0.24816607102085567,0.09627237295028733
63.400000000000006,0.10128236703066651,0.041898685657330105
63.6,0.05424650868405986,0.022942171449520855
63.800000000000004,0.07401312290197817,0.031009587852454418
64.0,0.058121425176832046,0.024535508208026937
64.2,0.19051941837673336,0.07573648350829504
64.4,0.2146367159620599,0.08444640481117628
64.60000000000001,0.18413970028391913,0.0734029418154613
64.8,0.25816905560663334,0.09973899960232718
65.0,0.11656541759018069,0.04788417269734323
65.2,0.05247007795438468,0.022209757558516532
65.4,0.13493694726463523,0.05497173446686535
65.60000000000001,0.10249992335919446,0.04237856794969016
65.8,0.07465526871466989,0.0312691722466031
66.0,0.29757726912482524,0.11313322899090611
66.2,0.16286038739088024,0.06552757661547624
66.4,0.12219606935474156,0.050068743194264534
66.60000000000001,0.22976623313600514,0.08982256403467075
66.8,0.0896974439722228,0.03730593220381697
67.0,0.05104816777441628,0.02162261947190154
67.2,0.07545063004568052,0.03159047833030058
67.4,0.05951604807716279,0.025107539186099707
67.60000000000001,0.19021202326807066,0.0756243331011866
67.8,0.2353709036030691,0.09179736828754169
68.0,0.12221849883842395,0.05007742340970571
68.2,0.2510930659317944,0.09728961706135962
68.4,0.17649912690157737,0.07059160921542489
68.60000000000001,0.05027280354172402,0.02130211972188468
68.8,0.12440994863270859,0.0509246795333874
69.0,0.02988275526548713,0.012787786220233258
69.2,0.11713800419526608,0.04810682643554475
69.4,0.2441076810750859,0.0948579714101229
69.60000000000001,0.16980554764004707,0.06811367661334133
69.8,0.12547822923943314,0.05133709861452515
70.0,0.2355702713533619,0.09186745033958489
70.2,0.07805674709735856,0.03264162198485815
70.4,0.042387809945073865,0.01802932393961673
70.60000000000001,0.04731762150225259,0.020078410758904937
70.8,0.04325826484072258,0.01839183394018238
71.0,0.2179565744068485,0.0856318040343872
71.2,0.22613555179828357,0.08853848498159718
71.4,0.1268303086517857,0.05185851980397371
71.60000000000001,0.2729928340834877,0.10482595893507064
71.8,0.12424648142183782,0.05086153702141492
72.0,0.05474355225958866,0.023146879181540944
72.2,0.12784264720451474,0.05224851257491677
72.4,0.07266508727466643,0.03046414558865396
72.60000000000001,0.11391383220600763,0.046851596901601456
72.8,0.17376623747988493,0.06958161319675511
73.0,0.10353119232240839,0.042784613403467814
73.2,0.12436907421422644,0.05090889182439564
73.4,0.20852170032264403,0.08225445304384896
73.60000000000001,0.092850946554616,0.038560932761142294
73.8,0.025307567891895703,0.010854162954299505
74.0,0.07570456707772773,0.03169301249652782
74.2,0.023699386376836835,0.010172442963213566
74.4,0.19187842938479957,0.07623195998483874
74.60000000000001,0.17707530157745818,0.07080424705200095
74.8,0.1241534842791247,0.0508256108992372
75.0,0.23732045563045884,0.09248219282899262
75.2,0.16816637348468264,0.06750470060232569
75.4,0.074559334996639,0.031230401353901097
75.60000000000001,0.07209124007886518,0.030231747461779923
75.8,0.07240048593077403,0.030357002100291755
76.0,0.10379487974513585,0.042888375140015644
76.2,0.25031542972397497,0.09701959069385459
76.4,0.06999359197391909,0.029381176770536595
76.60000000000001,0.08133375696050561,0.03395976096024573
76.80000000000001,0.23553535057164876,0.09185517575069785
77.0,0.07839655406343234,0.03277849143751003
77.2,0.07755991488183081,0.032441427305292
77.4,0.10559971801575066,0.04359791926292067
77.60000000000001,0.07577741831904483,0.03172242375103113
77.80000000000001,0.2059643536412316,0.08133447095031185
78.0,0.17406705311163895,0.06969290097019239
