Frequency (Hz),Power,Log Power
0.0,0.2719660027256112,0.10447550358756552
1.0,0.27193900386385217,0.10446628511702535
2.0,0.27185958132931937,0.10443916601357253
3.0,0.27173253271984554,0.10439578129809943
4.0,0.2715658901250731,0.10433886940855215
5.0,0.27137102965048376,0.10427231106936352
6.0,0.2711627884037643,0.10420117099333791
7.0,0.27095956809450517,0.10413173494995914
8.0,0.2707835485179943,0.1040715838431001
9.0,0.27066075107627424,0.1040296153833696
10.0,0.2706216082087037,0.10401623668003032
11.0,0.27069967456750615,0.10404291869705087
12.0,0.27093379950392693,0.10412292957925588
13.0,0.2713674608505561,0.10427109198205167
14.0,0.27204274990652627,0.10450170701721072
15.0,0.2730157878918824,0.10483378979018929
16.0,0.27433072066916897,0.10528215289905743
17.0,0.27608169143248235,0.1058784776788054
18.0,0.27824368732292154,0.10661365661657506
19.0,0.28093274348036307,0.10752632732301352
20.0,0.28403165333682623,0.10857572988554115
21.0,0.28841168875378703,0.11005465618044101
22.0,0.2927829263166374,0.1115256077750077
23.0,0.29840448912808065,0.11341000835867428
24.0,0.3038355804083881,0.11522282834106397
25.0,0.3110006126440813,0.11760289464041354
26.0,0.31838208268884477,0.12004129216687476
27.0,0.32730041218295114,0.12296922926058448
28.0,0.3360828048410847,0.12583337473470446
29.0,0.3471369786329783,0.12941175759371765
30.0,0.35764082525337176,0.13278488905894115
31.0,0.369586514912386,0.13658947124665097
32.0,0.38081003093438953,0.14013393332741347
33.0,0.3969360343708946,0.14517652024749414
34.0,0.40802023334973897,0.14860889569317093
35.0,0.42127839934030853,0.15267915565784
36.0,0.43537787735849554,0.156966248420493
37.0,0.44917323014165267,0.16112030293002502
38.0,0.4659446779134763,0.16611758113031438
39.0,0.4793051412568063,0.1700577666238692
40.0,0.49698949160877337,0.17521875174429394
41.0,0.5090996106948926,0.17871790707006402
42.0,0.5351238147039197,0.18614340904718107
43.0,0.5465514242112791,0.18936436525732928
44.0,0.5647163399347777,0.1944356178142009
45.0,0.582621561309164,0.1993770781700864
46.0,0.6097620381123373,0.20676168151456545
47.0,0.6234504839707395,0.21043904697112426
48.0,0.6336859008452143,0.21316856098319362
49.0,0.6394841386012086,0.21470721938824944
50.0,0.7444220389287673,0.24165156488781875
51.0,0.7238462745213419,0.23649853463033796
52.0,0.7369930870549632,0.23979809003037014
53.0,0.747489122922418,0.2424144812019967
54.0,0.7597208779281495,0.24544378668406
55.0,0.7692895203504285,0.24779890515530806
56.0,0.7792365236735846,0.250233685070067
57.0,0.8008481236160236,0.25547708769083954
58.0,0.7846078561565659,0.2515428004946128
59.0,0.7115650648351023,0.2333934134135664
60.0,0.8033443149048756,0.25607865505681576
61.0,0.8134202909459791,0.2584984708824807
62.0,0.8139326081954075,0.2586211479762604
63.0,0.8146888296533461,0.25880216592848254
64.0,0.8298323745059277,0.2624113071285486
65.0,0.8197328863142753,0.26000764374692176
66.0,1.045462110334526,0.31079143913869844
67.0,0.7654232425276204,0.2468488399555477
68.0,0.7936830788633219,0.25374571113866967
69.0,0.7747344327386064,0.24913337540522185
70.0,0.7731777956223699,0.24875228426780177
71.0,0.771415737807298,0.2483204987659104
72.0,0.7613078235078706,0.2458352641830873
73.0,0.758129750185834,0.24505092290520009
74.0,0.7477707672916653,0.24248447118816657
75.0,0.7494833931400819,0.2429098243257243
76.0,0.735774553890045,0.23949331740750945
77.0,0.7311116822565104,0.23832508718395304
78.0,0.7208620849637741,0.23574606606303258
79.0,0.7051437404068581,0.23176099507882036
80.0,0.7310300407991316,0.23830460481363036
81.0,0.7170003053997335,0.23477037240809603
82.0,0.7782277384082398,0.2499873804813872
83.0,0.5563240938652213,0.1921000409319009
84.0,0.6244253009786583,0.2106997451555062
85.0,0.6666075177649241,0.22183333651787196
86.0,0.6393002380715342,0.21465850195144046
87.0,0.6407638968517498,0.21504609130803856
88.0,0.633481009747323,0.2131140898920269
89.0,0.6969969403560323,0.2296810592960555
90.0,0.5889540093259893,0.20111132717276944
91.0,0.6123767380095516,0.20746652389743317
92.0,0.6047378286583458,0.20540409040612784
93.0,0.6194587930697633,0.2093699019169916
94.0,0.5643707016729692,0.19433967366918195
95.0,0.5805787862650632,0.19881614875982395
96.0,0.5393455077684056,0.18733610864001216
97.0,0.5882632748035916,0.20092249388285763
98.0,0.5835193050820541,0.19962336233344533
99.0,0.5701797283994343,0.19594936615745964
100.0,0.5593738335980333,0.19295024245402354
101.0,0.5434661937813936,0.18849712166069246
102.0,0.5464931397272728,0.18934799780496042
103.0,0.5377340717615305,0.18688123718698973
104.0,0.5485733368129674,0.18993177735119424
105.0,0.5386497542164936,0.18713977179879732
106.0,0.5257498372469854,0.18348333230207656
107.0,0.5189070819026407,0.18153120700878012
108.0,0.5245446759558068,0.18314015565239175
109.0,0.4986580237859862,0.17570254323755394
110.0,0.5039356404795121,0.17722925142672355
111.0,0.48343553283094154,0.17126867748525687
112.0,0.49507473406880204,0.17466290221394412
113.0,0.49069892797699377,0.17338993914625547
114.0,0.46949092337889925,0.1671669079053089
115.0,0.4737821851744639,0.16843330254151037
116.0,0.6590108751527926,0.2198492329221108
117.0,0.5196416107600699,0.18174117687799057
118.0,0.5230655897032236,0.18271860631228862
119.0,0.4602026304766531,0.1644131264636692
120.0,0.48671759578680285,0.17222848147476438
121.0,0.4816884531578884,0.17075689642460515
122.0,0.47739282550233214,0.1694959856743322
123.0,0.4683469672552273,0.16682869056612665
124.0,0.44360899162468426,0.15944957843098745
125.0,0.4366958344649656,0.1573648325769829
126.0,0.4418225554420862,0.1589118152140481
127.0,0.4388649901450161,0.15802004564906158
128.0,0.4427129704757457,0.15917993626475455
129.0,0.43002684251006135,0.15534418952421533
130.0,0.42478275202676574,0.15374864905419083
131.0,0.4422809044787415,0.15904985357629628
132.0,0.4907030418438879,0.1733911376627316
133.0,0.42710429942424766,0.15445571453660248
134.0,0.42068651318616157,0.1524982576507995
135.0,0.4098191271662267,0.14916339839130888
136.0,0.4087586643209459,0.1488366001137582
137.0,0.41728989533919664,0.1514586908045175
138.0,0.40079660206639384,0.1463750796019425
139.0,0.40084691813542406,0.14639067901062938
140.0,0.3881676220261624,0.1424419105897813
141.0,0.39917012099055527,0.14587052229432027
142.0,0.3974953513609166,0.14535037192042147
143.0,0.3729309293213631,0.13764868889797915
144.0,0.38155090463370034,0.1403668915646734
145.0,0.41088759911938527,0.14949241628685614
146.0,0.3579396403663102,0.1328804662343003
147.0,0.38233022904672714,0.14061180535422493
148.0,0.39584925097495144,0.1448385178538387
149.0,0.4670104594616939,0.16643321027839098
150.0,0.37371891845957034,0.13789787926652106
151.0,0.37967027424894617,0.13977530728222964
152.0,0.3817092234540275,0.14041665668770756
153.0,0.3640026659627639,0.13481521915608025
154.0,0.3737641815101222,0.13791218872166622
155.0,0.3630406713066111,0.13450881479322482
156.0,0.3664492318316976,0.1355935008329753
157.0,0.3700431574017374,0.1367342479784615
158.0,0.36971724911807097,0.13663092495099263
159.0,0.35389510353007236,0.13158501758191943
160.0,0.3418885966119711,0.12771646226743025
161.0,0.3529210104133367,0.1312724412812679
162.0,0.3587446399261431,0.1331378438615339
163.0,0.35379549463391874,0.13155306445256498
164.0,0.3643063348824046,0.13491189569574577
165.0,0.5251436457294172,0.18331074965637628
166.0,0.3169380166054332,0.11956533481014375
167.0,0.3341173383491899,0.1251940283485298
168.0,0.3191297060837144,0.12028750052507951
169.0,0.32536181381227325,0.12233445358756583
170.0,0.3192463337372724,0.12032589592107015
171.0,0.3208678933426496,0.12085938380581758
172.0,0.33786327507005537,0.12641173232816688
173.0,0.32222063010483626,0.12130392900918033
174.0,0.3189764575784346,0.12023704388978976
175.0,0.3117450496771401,0.11784943391328995
176.0,0.327467395295006,0.12302386292310508
177.0,0.33032866029480984,0.12395894752308627
178.0,0.33060118956471446,0.12404790737183748
179.0,0.31952768657585967,0.12041850709943454
180.0,0.3294801846125419,0.12368186872470362
181.0,0.35939634120152664,0.13334609668957836
182.0,0.32479318960445314,0.1221480868586733
183.0,0.2840405275725506,0.10857873138342343
184.0,0.2841389881714039,0.10861203193311292
185.0,0.2789461182633892,0.10685224812696628
186.0,0.2912985652710431,0.11102666849290212
187.0,0.29663196055629487,0.112816722281669
188.0,0.27881795346498994,0.10680872475013817
189.0,0.28365462666367597,0.10844819046911662
190.0,0.2748134165790939,0.1054466254916896
191.0,0.28351163653021416,0.10839981041139804
192.0,0.28842218392264907,0.11005819385042567
193.0,0.27768058806782553,0.10642229656294339
194.0,0.2782389258961191,0.10661203887712667
195.0,0.26994721519386017,0.10378567006899275
196.0,0.2628934688298055,0.10136671726104138
197.0,0.2605033475251841,0.10054400337207205
198.0,0.2847094487926981,0.10880491828676364
199.0,0.35077862941952104,0.13058418107309056
200.0,0.29734799559031,0.11305648517673966
201.0,0.29416023605988134,0.11198805170232659
202.0,0.2912861276992478,0.11102248542094807
203.0,0.28302256145630367,0.10823429334283656
204.0,0.2749216543922877,0.1054834976244588
205.0,0.2815958279960188,0.10775108497513694
206.0,0.2754924889124366,0.10567790549109576
207.0,0.26012609489353294,0.10041400509888222
208.0,0.2868951711585601,0.10954317126988768
209.0,0.2654210249572677,0.10223504598140984
210.0,0.24901512040270912,0.09656769591433786
211.0,0.26055453987858523,0.10056164085410842
212.0,0.24454796935550288,0.09501164053874954
213.0,0.2428330909585299,0.09441280801178203
214.0,0.20951395014887772,0.08261088174109064
215.0,0.5920050902978785,0.20194445202272157
216.0,0.30515658557000636,0.11566261908383758
217.0,0.301467297834671,0.11443325999932315
218.0,0.30083116792080117,0.1142209340724507
219.0,0.27497457991795043,0.1055015260159213
220.0,0.2740449681842562,0.10518475695508366
221.0,0.27375283577768295,0.10508516389277818
222.0,0.2825763679217768,0.10808323357301777
223.0,0.283863988855082,0.10851901748793456
224.0,0.26907015198608913,0.10348562980027352
225.0,0.26113720482473596,0.1007623380058888
226.0,0.27358164258006384,0.10502679051322479
227.0,0.27585795718847184,0.10580232654577366
228.0,0.3015028737265946,0.11444513137128194
229.0,0.28509671044106943,0.10893581189335669
230.0,0.31209580461046166,0.11796554684956072
231.0,0.5452754719979064,0.1890059111423348
232.0,0.18627244820787112,0.07418444380463336
233.0,0.21841154808308222,0.08579400658290388
234.0,0.2240530722986655,0.08780024828892766
235.0,0.22143131515565137,0.08686905027992119
236.0,0.22174588701673126,0.08698088565892075
237.0,0.24807218944122802,0.0962397059948531
238.0,0.24847084325893465,0.0963784043088204
239.0,0.2510649160488328,0.09727984522526847
240.0,0.2422204860109573,0.09419868711219874
241.0,0.23570308479476232,0.09191413084511038
242.0,0.24387807590889324,0.09477781318839903
243.0,0.24505089396680407,0.09518710445760842
244.0,0.24525038009266112,0.09525668296585053
245.0,0.2571472402030404,0.099386146311904
246.0,0.2620115962326786,0.1010633455235871
247.0,0.2908427328487757,0.11087333412048497
248.0,0.28859727204625474,0.11011720761213366
249.0,0.1908376436604608,0.07585255470799103
250.0,0.1975811880384975,0.07830496536168109
251.0,0.20568600691872946,0.08123422055900115
252.0,0.2098135733776159,0.08271845272045654
253.0,0.2155989927246946,0.08479033154093575
254.0,0.21598866783390872,0.08492952763397447
255.0,0.2083153147616135,0.08218027997387482
256.0,0.19489509618426837,0.07732977880035823
257.0,0.211126010443654,0.08318933124652379
258.0,0.2086376165861665,0.08229610672658066
259.0,0.21169138970065537,0.08339202179674073
260.0,0.1918389965335536,0.07621759127693978
261.0,0.1944604782199754,0.07717178457988125
262.0,0.1687271126853576,0.0677131191261095
263.0,0.1546560966703346,0.06245265300893879
264.0,0.2556854375036738,0.09888085766040475
265.0,0.41410595989822135,0.15048195265393954
266.0,0.26735068248530736,0.10289680304074225
267.0,0.26187748474352124,0.10101719145113226
268.0,0.26208918827500655,0.10109004635585185
269.0,0.24764552580132582,0.0960912135070114
270.0,0.21847975880119003,0.08581831914736249
271.0,0.22522943103189771,0.08821742037517714
272.0,0.21874598735400763,0.08591319882115231
273.0,0.23250622329651802,0.09078912083893378
274.0,0.2294564609791567,0.08971315357794393
275.0,0.21647761190794534,0.08510412057114429
276.0,0.2098670142746277,0.08273763631584713
277.0,0.20779633218406493,0.08199370641599754
278.0,0.19780698415451994,0.07838684103315062
279.0,0.17905291970731035,0.071533298073114
280.0,0.16115403940725648,0.0648898373328677
281.0,0.7578095125213818,0.24497181036055013
282.0,0.2607148326414211,0.10061686245259456
283.0,0.2679990649614464,0.10311893329158615
284.0,0.2594042080576963,0.10016514008021263
285.0,0.23354722485676402,0.09115578058060343
286.0,0.23562725537342624,0.09188747937021263
287.0,0.24093439448910964,0.093748821897999
288.0,0.2355376447784739,0.09185598217071571
289.0,0.2445811802133096,0.09502322956560907
290.0,0.24434847810892607,0.09494202097072765
291.0,0.23122874595298987,0.09033874657571492
292.0,0.2378278806901135,0.09266026046497301
293.0,0.26034002699947023,0.10048772918707895
294.0,0.2557968199006527,0.09891937894422287
295.0,0.29527634199489866,0.11236243328241435
296.0,0.36121608767312013,0.13392707320835562
297.0,0.6802065804861761,0.22536268127924103
298.0,0.13889907858725778,0.05648524159047692
299.0,0.13360041911098497,0.05445999780534826
300.0,0.14810807302690268,0.05998277073626124
301.0,0.14544038714940175,0.05897249186173581
302.0,0.17492656253524028,0.07001072236739543
303.0,0.18562773502682814,0.0739483500720118
304.0,0.19433611844942839,0.07712656619482204
305.0,0.19120169522194114,0.0759853027973524
306.0,0.17854145284722747,0.07134486257201086
307.0,0.1713331664563093,0.068680440566726
308.0,0.19346236632210229,0.07680872886742118
309.0,0.2086949907816284,0.0823167222566252
310.0,0.19173249744997142,0.07617878231780008
311.0,0.214135069289121,0.0842670035299662
312.0,0.2267641150576926,0.08876106364207179
313.0,0.2368191511217643,0.0923062013172247
314.0,0.5130542694513219,0.17985450535336583
315.0,0.14240969246608143,0.057821879101810685
316.0,0.1366779506800135,0.05563743561630069
317.0,0.14449175337860581,0.05861266771823416
318.0,0.17461217302990448,0.06989449731770053
319.0,0.16518937494302383,0.06639651575596149
320.0,0.15960296149809858,0.06430931582459487
321.0,0.1573254123166987,0.06345548937789001
322.0,0.14916492795698622,0.06038236303242412
323.0,0.1550852860486693,0.06261405166789008
324.0,0.1612431037419743,0.06492314787084823
325.0,0.1508464268657371,0.061017373660497996
326.0,0.1330455844896041,0.054247382673682815
327.0,0.12646676307002624,0.05171838218658646
328.0,0.08663700662696404,0.03608449132922252
329.0,0.060104342163651035,0.025348613373944784
330.0,0.3780276048335149,0.1392579175039653
331.0,0.6202321423111584,0.20957724349444487
332.0,0.30942873972962703,0.11708186871444388
333.0,0.26750836300780667,0.10295083348557918
334.0,0.26979233348412335,0.1037327006438366
335.0,0.2359138374633048,0.0919881946859847
336.0,0.2254906912282854,0.08831001671943647
337.0,0.22946390530932737,0.08971578321293248
338.0,0.2275568017454162,0.08904159701810249
339.0,0.2287682477986734,0.08946998036973511
340.0,0.21669596662624224,0.08518206835945254
341.0,0.20347508994280553,0.08043710548571131
342.0,0.19457572599501913,0.07721368555459535
343.0,0.20728130318024168,0.08180847489010697
344.0,0.18331301138292405,0.07309963992412807
345.0,0.16891486626133778,0.06778288202643001
346.0,0.19492288501983282,0.07733987876448907
347.0,1.092954308476163,0.32075974730988843
348.0,0.22281412386122718,0.08736044631146839
349.0,0.2625429461435284,0.10124615982510121
350.0,0.254147347700502,0.09834856403371481
351.0,0.2181158035899725,0.0856885776806152
352.0,0.2335747272722994,0.09116546323718733
353.0,0.24083043335286472,0.09371243670362168
354.0,0.23162533042663924,0.09047861231250777
355.0,0.2381610634282219,0.09277714259067313
356.0,0.23247021768016116,0.09077643346371796
357.0,0.23236613626712171,0.09073975599155536
358.0,0.2633811151455289,0.10153438083016639
359.0,0.2666636524199839,0.10266130841904851
360.0,0.27407905350018513,0.10519637574953537
361.0,0.33648843026391384,0.12596520350087026
362.0,0.4537781727780717,0.16249814401406412
363.0,0.875171220949138,0.27304092908688005
364.0,0.4492289397603005,0.16113699790784547
365.0,0.054996693164745925,0.023251098361148262
366.0,0.06715163225918894,0.02822613299023503
367.0,0.07483827425994415,0.031343122967620166
368.0,0.12869780430653457,0.05257768019794628
369.0,0.13527118463825352,0.055099614766488225
370.0,0.14117694539103665,0.05735298924634872
371.0,0.14471711372865517,0.05869817564910815
372.0,0.14454623464853075,0.058633340957405945
373.0,0.15617727943704546,0.06302443060554638
374.0,0.17569062317889383,0.07029305445879785
375.0,0.17382264400739458,0.06960248315728243
376.0,0.16435868182874097,0.06608678576354471
377.0,0.1890688097845289,0.07520698737314115
378.0,0.19211898589131976,0.0763196046803009
379.0,0.1107496974852343,0.04561620363200701
380.0,1.1252139956820724,0.3274026673108598
381.0,0.1966326531447128,0.07796084948971511
382.0,0.11462527422167995,0.047128886495673115
383.0,0.11132632556439344,0.04584160221955568
384.0,0.16265662011253268,0.06545146880416393
385.0,0.14879896685131577,0.060244036324605385
386.0,0.12677238868758348,0.05183619615226682
387.0,0.1480989076799154,0.05997930374948277
388.0,0.13412088090818697,0.05465934654413123
389.0,0.12288472880816845,0.05033517548494984
390.0,0.13795200786593506,0.056123946454039425
391.0,0.11390652111587425,0.046848746432893905
392.0,0.07360081706623783,0.030842833345803067
393.0,0.09217762411483363,0.03829327472378728
394.0,0.015333717852369982,0.006608808752913081
395.0,0.18625221651984053,0.07417703691811955
396.0,0.6812279502310423,0.22562660149174307
397.0,1.187925201989893,0.3400324708065908
398.0,0.43382615995301876,0.15649649976294877
399.0,0.3835622342888501,0.14099869900306225
400.0,0.37369486197417323,0.13789027386034844
401.0,0.3057093552621164,0.1158465157955601
402.0,0.2903319712904263,0.11070145816888904
403.0,0.30076903435250285,0.1142001897122416
404.0,0.27142816854806606,0.10429182901473946
405.0,0.27454975665047204,0.10535679438899685
406.0,0.2736129863960869,0.10503747870028868
407.0,0.24991338169521057,0.0968799176838805
408.0,0.27120661905536003,0.10421614553643324
409.0,0.28917676429407846,0.11031246932726246
410.0,0.22661436376275113,0.08870804600806774
411.0,0.2585052244194481,0.09985502277022018
412.0,0.4118016748423168,0.14977369277027888
413.0,2.101890982898904,0.49162653030627174
414.0,0.10864237828577854,0.04479147564909908
415.0,0.2990584628984072,0.11362869652555806
416.0,0.3023523228535899,0.11472848897279775
417.0,0.24461172297635123,0.0950338872799507
418.0,0.2878340134647952,0.1098598912212372
419.0,0.2799347350838169,0.10718782518256001
420.0,0.26679852664984827,0.10270754959392793
421.0,0.2983325038002368,0.11338592980874514
422.0,0.3031514185098464,0.11499488110219429
423.0,0.31119381857144784,0.1176668931504243
424.0,0.3645074890675213,0.13497592362758887
425.0,0.39024943625224023,0.14309272764205724
426.0,0.39018742105516135,0.14307335452964928
427.0,0.5439510143552715,0.18863351715730634
428.0,0.7982179457630186,0.2548423275006612
429.0,1.4815533996463461,0.39472362505912123
430.0,1.513268787400173,0.400238937714081
431.0,0.17802866142399212,0.0711558569594515
432.0,0.10307956631853156,0.04260683969930325
433.0,0.10912710261124857,0.04498131783509834
434.0,0.04759362334323037,0.020192846229639308
435.0,0.10587038345404799,0.04370422728562764
436.0,0.09550169749943269,0.03961305484429646
437.0,0.107076951787696,0.04417780929358834
438.0,0.1613528709245837,0.06496419787029435
439.0,0.12007748462404766,0.04924806729578113
440.0,0.16476606764738405,0.06623871014190733
441.0,0.17175022398747877,0.06883504521039736
442.0,0.10139875773996676,0.04194458230780076
