Frequency (Hz),Power,Log Power
0.0,0.10271732838807146,0.042464199244847484
0.5,0.1027157299732139,0.042463569724264384
1.0,0.10271093033112368,0.04246167942511057
1.5,0.1027029013104671,0.04245851724364937
2.0,0.10269158988542794,0.042454062267910035
2.5,0.10267694171846879,0.04244829305701462
3.0,0.10265887520770108,0.04244117741877614
3.5,0.10263729766694464,0.04243267878081622
4.0,0.10261210710137925,0.042422756888446184
4.5,0.10258318544503015,0.042411365139331615
5.0,0.1025504115287009,0.042398455689280384
5.5,0.10251366562878363,0.04238398124227147
6.0,0.10247281821168913,0.04236789061498083
6.5,0.10242775446843137,0.042350138399505896
7.0,0.10237835026229354,0.04233067548703841
7.5,0.10232452433732489,0.04230946963433951
8.0,0.10226615918059381,0.04228647428586126
8.5,0.10220318613907708,0.04226166210645412
9.0,0.1021358026972436,0.042235110603153374
9.5,0.10206408456750295,0.04220684929328782
10.0,0.10198665240333855,0.042176334241099456
10.5,0.10190553119497499,0.0421443630825866
11.0,0.10182074188051357,0.04211094374928457
11.5,0.10173017853922395,0.04207524576831899
12.0,0.1016385283610138,0.042039116393729564
12.5,0.10154085960704358,0.04200061113068738
13.0,0.10144210447982199,0.041961674100724024
13.5,0.10133978361266938,0.041921327493318054
14.0,0.10123773104705835,0.04188108294723905
14.5,0.10112372057388277,0.04183611837579049
15.0,0.10102073985763958,0.041795499826332766
15.5,0.10091735318351637,0.04175471733362882
16.0,0.10081540676662581,0.041714499222564316
16.5,0.10071317054851121,0.04167416304354099
17.0,0.1006184357492647,0.041636783122710706
17.5,0.10053693228237837,0.041604621371245994
18.0,0.10050260628944083,0.041591075418019235
18.5,0.10032678025319451,0.04152168314440995
19.0,0.10020692808472642,0.04147437540696059
19.5,0.09986222393663237,0.04133828594768718
20.0,0.1008279099454911,0.04171943195762301
20.5,0.10047810087318583,0.0415814046680467
21.0,0.10034058292287626,0.041527130967537386
21.5,0.10065711908286411,0.04165204696215927
22.0,0.10043494237069212,0.04156437219187486
22.5,0.1009338076000519,0.04176120829217472
23.0,0.10043660607783939,0.04156502878524499
23.5,0.10068015770862529,0.04166113738927795
24.0,0.10118285601509062,0.041859441373669766
24.5,0.10180788368369874,0.04210587552330566
25.0,0.10009551368205549,0.04143039358027409
25.5,0.10219447067186649,0.04225822798983265
26.0,0.10260124600129246,0.04241847892066722
26.5,0.10350250685682419,0.042773324097446455
27.0,0.10419169797562307,0.04304447751075789
27.5,0.10485512465154834,0.04330533441085874
28.0,0.10527563989543204,0.04347059834465688
28.5,0.10920220447621558,0.045010724042232726
29.0,0.10595164196108402,0.04373613773847945
29.5,0.10702194309164463,0.04415622943262372
30.0,0.10897605436769928,0.044922168720622144
30.5,0.11078236928657689,0.0456289778640338
31.0,0.11103092419480018,0.04572614716791582
31.5,0.11316705600086509,0.046560344977180895
32.0,0.11529207029990321,0.04738861438798229
32.5,0.11684842083076924,0.047994234472990706
33.0,0.11956966575623786,0.04905112293707875
33.5,0.1169286213326005,0.04802541989100575
34.0,0.12147378638460898,0.04978912672722077
34.5,0.12670296626137617,0.05180943768200838
35.0,0.12532108518066323,0.05127645633756928
35.5,0.1287044611007832,0.05258024155712775
36.0,0.13156520158861892,0.053679583367476455
36.5,0.1353181828105982,0.055117593399881294
37.0,0.13806639798146036,0.05616760075478774
37.5,0.1431003896434174,0.058084372786929905
38.0,0.1560171035790271,0.0629642596338549
38.5,0.13662628485871256,0.055617695028352
39.0,0.14324406884273758,0.05813895693612023
39.5,0.142098157526252,0.05770343091514576
40.0,0.1534132390191603,0.06198493198901888
40.5,0.15194271494859904,0.061430882559152244
41.0,0.15880552262514336,0.06401055629346918
41.5,0.16538008584493027,0.06646759254119808
42.0,0.16515164658171838,0.06638245324839179
42.5,0.17265417694678725,0.06916995483727446
43.0,0.14170892992502387,0.057555397920604975
43.5,0.1747734787560851,0.06995413349266098
44.0,0.17652344555034083,0.07060058614160428
44.5,0.17887956128967844,0.07146943822563204
45.0,0.19011404345956154,0.07558857994048124
45.5,0.18495852313945915,0.07370314909134502
46.0,0.20622288113774898,0.08142756245164208
46.5,0.20130823938896109,0.07965445577099702
47.0,0.21813990267548328,0.08569716963574515
47.5,0.2782169112173198,0.1066045591050259
48.0,0.145498312123407,0.0589944535987201
48.5,0.1791451377635392,0.07156726451019553
49.0,0.20415365555972834,0.08068190843665822
49.5,0.19382046121674917,0.07693901811184188
50.0,0.21391206074474023,0.08418722634663545
50.5,0.21543415546953507,0.08473143649008816
51.0,0.21210697833207243,0.08354095155386515
51.5,0.2214064642797488,0.08686021416450976
52.0,0.24220569872515355,0.09419351727727551
52.5,0.1992780869874148,0.07891989839564427
53.0,0.2303039999756802,0.09001243599165638
53.5,0.23574340304322733,0.09192830067878152
54.0,0.24409488183718547,0.09485350341505237
54.5,0.2515333863606794,0.09744243949663123
55.0,0.24830459179411182,0.0963205680349818
55.5,0.2569854399581473,0.09933024715098926
56.0,0.25195768838194843,0.09758965154793107
56.5,0.2806459055321548,0.1074290653172766
57.0,0.35839490174684435,0.1330260429327339
57.5,0.14026268507838527,0.057004912334946346
58.0,0.2034390342096518,0.08042409396544666
58.5,0.23360580739956388,0.09117640522345777
59.0,0.23861946061824782,0.09293789916194663
59.5,0.25708697911525497,0.09936532799855628
60.0,0.22295448486549174,0.0874102940439775
60.5,0.2356084212178478,0.0918808595484638
61.0,0.23859869162573555,0.09293061691364331
61.5,0.24742890273694243,0.0960158023684297
62.0,0.2375968009424321,0.09257917808720262
62.5,0.24410653224604487,0.09485757037542862
63.0,0.26283820925677426,0.10134771371616619
63.5,0.2500691932376227,0.09693405253574108
64.0,0.2432302885258772,0.09455158219961299
64.5,0.2632489985554666,0.10148896262211679
65.0,0.26366748697390946,0.10163281162826523
65.5,0.2597235809668404,0.10027525906143941
66.0,0.2671784388639335,0.10283777475514022
66.5,0.33300155522454333,0.12483065610931553
67.0,0.15632113726976207,0.06307846451325125
67.5,0.19498635130886574,0.07736294496190053
68.0,0.21354580598252978,0.08405617367166542
68.5,0.22997076381564413,0.08989478846017798
69.0,0.23870789970837128,0.09296890726322268
69.5,0.20607622186051794,0.0813747553061097
70.0,0.22146762421063532,0.08688196020588637
70.5,0.2228194412397873,0.08736233482673889
71.0,0.19937773236730147,0.07895598147042937
71.5,0.14419310695168538,0.058499327084723655
72.0,0.28785537672352757,0.10986709546365746
72.5,0.26915616879032345,0.10351506501898386
73.0,0.23224531503062,0.09069717565190485
73.5,0.23041923909681325,0.09005311323129823
74.0,0.22547256136903548,0.08830359173707764
74.5,0.3048562822277278,0.11556268081408165
75.0,0.24021589875373592,0.09349729441680138
75.5,0.22402221755644275,0.08778930087702073
76.0,0.21346576913762347,0.08402752975380305
76.5,0.5206357420652181,0.18202519422601277
77.0,0.32388419880930536,0.1218499986855657
77.5,0.2554429829869849,0.09879699364279533
78.0,0.2181123947577936,0.08568736232894497
78.5,0.2923200046563882,0.11137006710206976
79.0,0.39649455157780045,0.1450392456408103
79.5,0.0923989422606093,0.03838127095268008
80.0,0.27457856974971384,0.10536661215287967
80.5,0.16258216606331707,0.06542365662166214
81.0,0.3515343823716603,0.13082709841384366
81.5,0.40551811081704947,0.1478364460852113
82.0,0.3289214927271347,0.12349932535019632
82.5,0.2851236767685716,0.10894492498520685
83.0,0.2778457333188432,0.10647842720869655
83.5,0.2839831507616369,0.10855932468356826
84.0,0.28392099057536585,0.10853829911219878
84.5,0.2940270701614274,0.11194336157129296
85.0,0.2560365918566083,0.09900229179761154
85.5,0.3338810240269935,0.12511709426353165
86.0,0.41967418243838167,0.15218868452023554
86.5,0.21282590768226547,0.08379846553341963
87.0,0.2193868036533074,0.08614149072562476
87.5,0.23560251318769526,0.09187878297551051
88.0,0.21625693347958916,0.0850253290530522
88.5,0.21918111776559523,0.0860682278523901
89.0,0.18108916290491442,0.07228268465493673
89.5,0.18699622511981023,0.07444933781538056
90.0,0.17125307687435104,0.06865074478616293
90.5,0.30170671998678095,0.11451314687518165
91.0,0.47383598464617144,0.16844915589316475
91.5,0.3244645043116441,0.12204032368409806
92.0,0.3062273719100327,0.11601878013284925
92.5,0.2630387703171293,0.10141668189053436
93.0,0.24737884379719463,0.0959983739142047
93.5,0.25242702568791303,0.09775243053581815
94.0,0.26219759153966554,0.1011273471412199
94.5,0.269617959346695,0.10367305709115467
95.0,0.26784207178565694,0.10306515920531482
95.5,0.08416171563534156,0.03509406722987792
96.0,0.2018268695942731,0.07984190943431393
96.5,0.21085155149927176,0.0830909025843946
97.0,0.22354587045031332,0.08762025559220249
97.5,0.20974002121444627,0.08269204842945191
98.0,0.22240590150468553,0.08721543791415158
98.5,0.23804255623319584,0.09273557329443571
99.0,0.23167748400715998,0.09049700226611183
99.5,0.21363561087051888,0.08408831116830956
100.0,0.21155256068502482,0.0833422598439891
100.5,0.23032746426497244,0.09002071875281732
101.0,0.2179151449793842,0.08561703103004976
101.5,0.22751698334123685,0.08902750952849643
102.0,0.20634483095123016,0.08147146764928172
102.5,0.21028588015494207,0.08288796660507236
103.0,0.2126549848833928,0.0837372563697175
103.5,0.20062921797395722,0.07940890794411073
104.0,0.20853166564110542,0.0822580341669463
104.5,0.210910258571781,0.08311195845994641
105.0,0.524216269369661,0.18304659294197057
105.5,0.18539551388800887,0.07386327932499223
106.0,0.1860768994806628,0.07411284749151459
106.5,0.2167391199882545,0.08519747149644398
107.0,0.20529534507276745,0.081093479291686
107.5,0.17692291317303016,0.07074801808561779
108.0,0.1390596545800268,0.05654646944916104
108.5,0.24198086072390845,0.09411490329141516
109.0,0.20552156190063944,0.08117498255314282
109.5,0.27668846983360795,0.10608493615306075
110.0,0.43660819381167676,0.1573383391382441
110.5,0.2731389943470893,0.10487582013653451
111.0,0.2533328166767012,0.09806641118046888
111.5,0.2586750324146318,0.09991361744193905
112.0,0.23646182762320522,0.09218071325008484
112.5,0.24865035141765637,0.09644084373153639
113.0,0.24615795913313102,0.09557309563927431
113.5,0.203153710540413,0.08032111476719417
114.0,0.21919939745773998,0.08607473936228766
114.5,0.718635087148897,0.2351836739754863
115.0,0.17260782900200033,0.0691527894573552
115.5,0.16750198209090836,0.06725762654899635
116.0,0.20511831375908351,0.0810296863219494
116.5,0.20066039644281808,0.07942018574825394
117.0,0.20161012569133843,0.07976357937492774
117.5,0.14929890337853402,0.060432992314087434
118.0,0.20909982917105915,0.0824621598088811
118.5,0.21554574974533983,0.08477130911768502
119.0,0.22503876364987638,0.08814983120902982
119.5,0.4436148560909182,0.15945134268998437
120.0,0.3013472052107347,0.11439318371738386
120.5,0.20521609592801182,0.08106492313908707
121.0,0.2174222552896689,0.08544123668194062
121.5,0.2292844610026006,0.0896523918765708
122.0,0.20486748247460396,0.08093928359567461
122.5,0.2106592265154504,0.08302191616472658
123.0,0.21071419692899523,0.08304163501275177
123.5,0.24972335572589968,0.09681388630514974
124.0,0.6065171621040528,0.20588536939408913
124.5,0.12172905413705681,0.04988796877108045
125.0,0.1697106998253698,0.06807846259625377
125.5,0.16084619060093416,0.06477468054958944
126.0,0.17280228762555538,0.06922480441692513
126.5,0.17741999907785913,0.07093140825158184
127.0,0.1630454708015083,0.06559669437775724
127.5,0.17984409480033117,0.07182462320336719
128.0,0.16340141107138564,0.06572958621165687
128.5,0.16767035678975373,0.0673202550766728
129.0,0.32106405953492256,0.12092387743889839
129.5,0.21295560061533023,0.08384490411416803
130.0,0.19839395987671005,0.07859961143781317
130.5,0.19226152500347607,0.07637152923651647
131.0,0.17818872846145212,0.07121486359568872
131.5,0.1754447303457604,0.07020221332470612
132.0,0.19226752060349586,0.07637371319481975
132.5,0.2172828355342529,0.08539149823046253
133.0,0.23022691085729438,0.08998522285761824
133.5,0.4914064728686334,0.1735960236446886
134.0,0.0771710479672864,0.03228467199808504
134.5,0.11956882566502938,0.049050797055515294
135.0,0.12380724251440678,0.05069182663226287
135.5,0.16248347737028102,0.06538678888422117
136.0,0.13859208509386484,0.05636816049431786
136.5,0.16594388766499263,0.06667765002518207
137.0,0.16669622275380888,0.06695779181600957
137.5,0.1526758316975078,0.06170718734707025
138.0,0.19826772620651856,0.07855386231371811
138.5,0.2933114721260778,0.111703129934916
139.0,0.1459830400637609,0.05917819035281506
139.5,0.16103330370669344,0.06484467745485356
140.0,0.16777452667655288,0.06735899750846183
140.5,0.17716960779549965,0.07083904094278384
141.0,0.15021018031931557,0.06077720714706255
141.5,0.1826977603917403,0.07287377441272232
142.0,0.18213056389259083,0.0726654461278067
142.5,0.19711916609529417,0.0781373839917659
143.0,0.43892049854038734,0.15803679949670368
143.5,0.05612985663548035,0.023717320236613704
144.0,0.09561572910298494,0.03965825853409303
144.5,0.09396678943674446,0.039004137917622875
145.0,0.13063093038546425,0.053320862171321204
145.5,0.14583169163406798,0.05912082988030671
146.0,0.13839531371134856,0.056293099274496515
146.5,0.14615232558293745,0.05924233993846343
147.0,0.1583318287111984,0.06383299007739257
147.5,0.17233786315309216,0.06905279167967242
148.0,0.22336811066266896,0.08755715562578775
148.5,0.11836298940854055,0.0485827862971674
149.0,0.13542037881491592,0.055156684787615456
149.5,0.14667290023256324,0.05943954877853599
150.0,0.13323534292845687,0.054320110676715376
150.5,0.14493535471660637,0.058780966254569515
151.0,0.1495977864165722,0.06054591888052429
151.5,0.16360912390022647,0.06580711790673938
152.0,0.1684867877188333,0.06762380611357366
152.5,0.32158671848475534,0.12109566548041895
153.0,0.17722147056693296,0.07085817431077898
153.5,0.12314547993295506,0.050436013643504335
154.0,0.12097042441041762,0.04959415435697365
154.5,0.12619731072463058,0.05161448594332441
155.0,0.13655841622272988,0.05559176227058152
155.5,0.12638328474577598,0.051686197021282486
156.0,0.13290062901736432,0.05419181792865392
156.5,0.1396185959854693,0.056759527324180575
157.0,0.16037234614832097,0.06459737020103679
157.5,0.19366012882455974,0.07688068760763317
158.0,0.11454120023841141,0.04709612728505262
158.5,0.12109291460946395,0.04964160780457266
159.0,0.14083437863459158,0.05722260001334288
159.5,0.13127474715187404,0.05356809270735658
160.0,0.1389644323613603,0.05651016212090879
160.5,0.13383344124022595,0.05454926190871781
161.0,0.13659838668715146,0.05560703526197127
161.5,0.12686853219517305,0.05187325138538346
162.0,0.24311164310341707,0.09451013411746373
162.5,0.27724942232915495,0.10627571493283539
163.0,0.1642917960971982,0.06606183731858872
163.5,0.14781268358598854,0.059871019488279505
164.0,0.14519347804664343,0.05887886602051856
164.5,0.1331310619295959,0.05428014479802282
165.0,0.12276217036792948,0.05028777136778539
165.5,0.13045505606196864,0.0532533006112439
166.0,0.11767879098036686,0.04831700985795918
166.5,0.14451972783528047,0.058623282913717774
167.0,0.23248107820737268,0.09078026044970866
167.5,0.13846652039834725,0.05632026356772237
168.0,0.15195191060864846,0.0614343494055719
168.5,0.15087747865834555,0.06102909150567617
169.0,0.13427125667056422,0.054716926856482107
169.5,0.13368442404031178,0.05449217980258275
170.0,0.13506530380957615,0.05502084854965271
170.5,0.09443807954106934,0.039191195347214304
171.0,0.11062733771690816,0.04556835928014547
171.5,0.15058697526243098,0.06091945346866456
172.0,0.3744496786050282,0.13812884406728773
172.5,0.2070263570562484,0.08171675360945332
173.0,0.18534902338760595,0.07384624622212436
173.5,0.16165657618093945,0.0650777553229996
174.0,0.16676328791735764,0.06698275563503622
174.5,0.16525913327945407,0.06642251561005012
175.0,0.1445314606416059,0.05862773497059623
175.5,0.14343083510058913,0.058209899731907315
176.0,0.12500018004092955,0.05115259195029324
176.5,0.2847858204673944,0.10883073487206807
177.0,0.17625343853070935,0.0705009060061785
177.5,0.16264228093035077,0.06544611256570884
178.0,0.1642018196386608,0.06602827374839093
178.5,0.1599309671613215,0.06443214312947725
179.0,0.1375737643218657,0.05597956743840664
179.5,0.1370362497160876,0.05577431059865257
180.0,0.12651810061462992,0.0517381742523913
180.5,0.11601096409430801,0.047668461288179066
181.0,0.045943248475177605,0.019508120914896367
181.5,0.4584842464679252,0.1639017425362568
182.0,0.22501619188225347,0.0881418291076047
182.5,0.19676921821663737,0.0780104102909593
183.0,0.1598620291953778,0.06440633101757007
183.5,0.1585310350263211,0.063907672273724
184.0,0.1481122904196375,0.05998436604516269
184.5,0.1481863461032169,0.06001237805913311
185.0,0.15453159093742086,0.06240582082365359
185.5,0.1583415593685029,0.06383663838689917
186.0,0.33704397926800245,0.12614569270647324
186.5,0.2007786307584972,0.07946295053247775
187.0,0.1575753517162247,0.0635492707650947
187.5,0.1679665048858473,0.06743038819433264
188.0,0.145491581395163,0.05899190176019486
188.5,0.15645046138239868,0.06312703372655909
189.0,0.12664533705844486,0.05178722358860957
189.5,0.13663834888259366,0.05562230455680148
190.0,0.11996127825114952,0.049203007551821845
190.5,0.04626849342465652,0.01964314748523302
191.0,0.5003093475583329,0.17618081511306555
191.5,0.2210302880174143,0.08672643688156224
192.0,0.1767978397421101,0.07070186248209932
192.5,0.1748895080968901,0.06999702551826079
193.0,0.17551122769470467,0.07022678157033112
193.5,0.16667862028432276,0.06695123937083455
194.0,0.1642200590010624,0.06603507771679318
194.5,0.1691487969319439,0.06786978710205348
195.0,0.18350444094166352,0.07316989189994766
195.5,0.3897478409367346,0.14293600800652087
196.0,0.18430542424813584,0.07346371840053008
196.5,0.15085144222853222,0.06101926630193977
197.0,0.14102410865882825,0.057294820708207225
197.5,0.13664054571543405,0.05562314393676711
198.0,0.14691081695633434,0.05952964875603623
198.5,0.1254403638740087,0.0513224870516628
199.0,0.14052167127215678,0.05710354180424658
199.5,0.1365792795654882,0.055599734365409846
200.0,0.08888866278915364,0.03698347607511915
200.5,0.5068579655430165,0.17807231821510958
201.0,0.20115949734930413,0.07960067952572651
201.5,0.16926030571993375,0.06791120641682567
202.0,0.16851164750820366,0.06763304571697468
202.5,0.16513970817933746,0.06637800334793945
203.0,0.15058759040907635,0.06091968565860586
203.5,0.16580484306987991,0.06662585516437954
204.0,0.18769426665922778,0.07470466001293798
204.5,0.22129280609726207,0.0868197989385248
205.0,0.39635602496477357,0.14499616324736686
205.5,0.16935433630661437,0.06794613048187995
206.0,0.10775502208242131,0.04444372761156127
206.5,0.11648534514503799,0.04785302694671976
207.0,0.12468372380073463,0.05103041016328547
207.5,0.14136505620464945,0.057424572146874645
208.0,0.11595560043817482,0.047646916045751414
208.5,0.12045482722234233,0.04939435200581121
209.0,0.11958528811941091,0.04905718299657453
209.5,0.09418368154506085,0.039090233501421066
210.0,0.5250587986299976,0.1832865882259368
210.5,0.14866653173342717,0.06019396737601114
211.0,0.13816948633418272,0.05620693824443444
211.5,0.12979959886124817,0.05300141620277141
212.0,0.1460993059285735,0.05922224952342332
212.5,0.15596782004726498,0.062945744317706
213.0,0.17866749188372447,0.07139130568281746
213.5,0.16726033515884534,0.06716772795095649
214.0,0.2013215827396938,0.0796592796048977
214.5,0.37297545606368837,0.13766277365964005
215.0,0.16154819945378024,0.06503723593779537
215.5,0.05668015711252437,0.023943552093163165
216.0,0.08086237791847799,0.033770400414476195
216.5,0.0884427501837279,0.036805590994785385
217.0,0.09646107132209468,0.03999321712606122
217.5,0.087068568647589,0.03625693879290018
218.0,0.10863175847187413,0.04478731547196885
218.5,0.10904642229313936,0.04494972516069744
219.0,0.11551853380725402,0.04747679027503579
219.5,0.4703632634965343,0.16742464348433325
220.0,0.09887818774652415,0.04094955291342866
