Frequency (Hz),Power,Log Power
0.0,0.0778723730029125,0.03256734064483403
0.1,0.0778725302154001,0.03256740398861444
0.2,0.0778729993881523,0.03256759302682377
0.30000000000000004,0.07787378139717761,0.03256790811225729
0.4,0.07787487559263234,0.032568348982807346
0.5,0.07787628089831704,0.03256891520447205
0.6000000000000001,0.07787799854317624,0.032569607271922735
0.7000000000000001,0.07788002579540405,0.032570424083870966
0.8,0.0778823622320888,0.0325713654692158
0.9,0.07788500645617628,0.03257243086425498
1.0,0.07788795655696742,0.03257361949823143
1.1,0.07789121089029016,0.032574930707677856
1.2000000000000002,0.07789477001003889,0.032576364714653486
1.3,0.07789862872600421,0.032577919426762636
1.4000000000000001,0.07790278826593634,0.032579595337378156
1.5,0.07790724518804996,0.03258139105838341
1.6,0.07791199649352641,0.03258330538005783
1.7000000000000002,0.0779170404403586,0.032585337598975674
1.8,0.07792237275290187,0.03258748599082635
1.9000000000000001,0.07792799316011327,0.03258975044468323
2.0,0.07793389654935995,0.032592128898875077
2.1,0.07794008136674302,0.032594620725474026
2.2,0.07794654372646267,0.03259722435697638
2.3000000000000003,0.07795327949768611,0.03259993812710819
2.4000000000000004,0.07796028638220244,0.03260276110788902
2.5,0.07796756038241891,0.03260569168662809
2.6,0.07797509616419772,0.03260872771213038
2.7,0.07798289188160111,0.03261186843849848
2.8000000000000003,0.0779909417439628,0.032615111530552104
2.9000000000000004,0.07799924205572466,0.03261845549716511
3.0,0.07800778728589022,0.032621898107747516
3.1,0.0780165730968185,0.03262543761247237
3.2,0.0780255973361152,0.0326290731418546
3.3000000000000003,0.07803485176039889,0.03263280137257397
3.4000000000000004,0.07804433294004319,0.032636620920604195
3.5,0.07805403465994101,0.03264052927977738
3.6,0.07806395100554607,0.03264452406504016
3.7,0.07807407824295863,0.032648603769832266
3.8000000000000003,0.07808441184374708,0.03265276656753137
3.9000000000000004,0.07809494139866752,0.03265700826253879
4.0,0.07810566473005784,0.03266132797531243
4.1000000000000005,0.07811657435777868,0.032665722690321856
4.2,0.07812766465304594,0.0326701901378866
4.3,0.07813892739223231,0.03267472700313124
4.4,0.07815035808734692,0.03267933147605238
4.5,0.07816194825424784,0.032684000137001665
4.6000000000000005,0.07817369559253673,0.03268873205729476
4.7,0.07818558822261822,0.032693522449747894
4.800000000000001,0.07819761954977292,0.032698368656094254
4.9,0.07820978443124058,0.03270326860300107
5.0,0.07822207559376604,0.03270821935907181
5.1000000000000005,0.07823448325300139,0.03271321698159949
5.2,0.078247002093455,0.032718259328001105
5.300000000000001,0.0782596219028224,0.032723342283471825
5.4,0.07827234230385685,0.03272846569464183
5.5,0.07828514926782708,0.03273362390981022
5.6000000000000005,0.07829802307916683,0.03273880898710992
5.7,0.07831098045745326,0.0327440276594614
5.800000000000001,0.07832399649337288,0.03274926989343849
5.9,0.07833705992279283,0.03275453115161813
6.0,0.07835016699708529,0.03275980992358663
6.1000000000000005,0.07836332810340207,0.03276511039197269
6.2,0.07837650121194434,0.032770415629323715
6.300000000000001,0.07838970506250999,0.03277573318244922
6.4,0.0784029128748102,0.0327810522659368
6.5,0.07841609913987521,0.03278636260688131
6.6000000000000005,0.07842931864471439,0.03279168626889056
6.7,0.0784424873195739,0.032796989396141514
6.800000000000001,0.07845566051889025,0.03280229428063768
6.9,0.07846877494914399,0.0328075754343016
7.0,0.07848185473704737,0.03281284257359799
7.1000000000000005,0.07849486122215639,0.03281808013102737
7.2,0.07850780774210483,0.0328232934784696
7.300000000000001,0.07852064717688592,0.032828463642695815
7.4,0.07853347914703776,0.03283363073958126
7.5,0.07854613413568272,0.03283872651045897
7.6000000000000005,0.07855869091818876,0.03284378267767861
7.7,0.0785711725247821,0.032848808515909975
7.800000000000001,0.07858358931638112,0.032853808198055924
7.9,0.07859574451427728,0.03285870249246162
8.0,0.07860772218797378,0.03286352525273689
8.1,0.07861965094223758,0.03286832826257942
8.200000000000001,0.07863131620164028,0.03287302512712207
8.3,0.07864297447700958,0.032877719128884694
8.4,0.07865427812772026,0.0328822702987553
8.5,0.07866536151608254,0.032886732738458886
8.6,0.07867651925758103,0.032891225068215735
8.700000000000001,0.07868723591955416,0.032895539766789994
8.8,0.07869753795682269,0.03289968749045276
8.9,0.07870773863172364,0.032903794365381905
9.0,0.07871775085974081,0.03290782533229186
9.1,0.07872717071001042,0.03291161777116394
9.200000000000001,0.0787368380238715,0.03291550980463266
9.3,0.0787458745133447,0.0329191478384312
9.4,0.07875477618289212,0.03292273156477953
9.5,0.07876311580576477,0.03292608898972432
9.600000000000001,0.07877090869205124,0.03292922628209043
9.700000000000001,0.07878004137982177,0.03293290292843211
9.8,0.07878628806466471,0.032935417706977235
9.9,0.07879330901770701,0.032938244171565705
10.0,0.07880060953245058,0.03294118316137362
10.100000000000001,0.07880692689464777,0.03294372634450233
10.200000000000001,0.07881227640535307,0.03294587988760822
10.3,0.0788182238578764,0.032948274130563046
10.4,0.07882308184914737,0.032950229783522196
10.5,0.07882733999015264,0.03295194395104727
10.600000000000001,0.07883290875294302,0.032954185715432786
10.700000000000001,0.07883529276872234,0.032955145422673277
10.8,0.07883979717683119,0.03295695870734711
10.9,0.07884143503229642,0.03295761803698311
11.0,0.07884395665959064,0.032958633132903536
11.100000000000001,0.07884507988733956,0.03295908529408614
11.200000000000001,0.07884512729126068,0.03295910437677127
11.3,0.07884739008979025,0.03296001527663969
11.4,0.07884899333947953,0.0329606606709579
11.5,0.07884515729898962,0.03295911645653193
11.600000000000001,0.07884527294560041,0.03295916301064756
11.700000000000001,0.07884594134687464,0.03295943207879152
11.8,0.07884591762731775,0.03295942253037276
11.9,0.07883930789326055,0.0329567617427899
12.0,0.07883933294547799,0.03295677182773914
12.100000000000001,0.07882958894672384,0.032952849293704685
12.200000000000001,0.07883023000252827,0.032953107357553316
12.3,0.07882594431324548,0.03295138210472682
12.4,0.07880958134213475,0.0329447949420883
12.5,0.07881230665341929,0.03294589206448855
12.600000000000001,0.07879514920019613,0.03293898498114656
12.700000000000001,0.0787844768207315,0.03293468854132631
12.8,0.07878390625351593,0.0329344588436766
12.9,0.07877079669099483,0.0329291811924028
13.0,0.07876611933182064,0.032927298164340424
13.100000000000001,0.07874751794766888,0.032919809471473375
13.200000000000001,0.07873441808716243,0.03291453554816801
13.3,0.07871955723648193,0.03290855258350602
13.4,0.07871317858910233,0.032905984520722055
13.5,0.07869991699717323,0.032900645314977925
13.600000000000001,0.07871675965394459,0.03290742627015989
13.700000000000001,0.07866579153473885,0.03288690587342637
13.8,0.07867796162799778,0.03289180579198493
13.9,0.07862281151160729,0.0328696008296281
14.0,0.07861414913141394,0.032866113012585484
14.100000000000001,0.0785658896161211,0.03284668130932655
14.200000000000001,0.07856010733380078,0.032844353013892665
14.3,0.07854389529637373,0.03283782500375825
14.4,0.07853124670538109,0.03283273179845907
14.5,0.07849199876580644,0.03281692745919562
14.600000000000001,0.07852893948737655,0.032831802745060944
14.700000000000001,0.07857539092143949,0.032850507080506186
14.8,0.07839150037079,0.032776456197354364
14.9,0.0784563298640915,0.03280256382610703
15.0,0.07821610640502537,0.032705815037210664
15.100000000000001,0.07833949063822689,0.032755510108151795
15.200000000000001,0.07820036802076613,0.032699475729828245
15.3,0.07815875001007092,0.03268271185015362
15.4,0.07825877145001232,0.03272299974341864
15.5,0.07820434833327435,0.03270107897966857
15.600000000000001,0.07789407024151346,0.03257608277089018
15.700000000000001,0.07813854723478264,0.03267457386858838
15.8,0.077907231469591,0.03258138553114429
15.9,0.07805356974488678,0.032640341988528845
16.0,0.07797699071506733,0.032609490987894646
16.1,0.07801963235694791,0.03262667007766898
16.2,0.07789387377839446,0.032576003613894546
16.3,0.07764642485612992,0.03247629246302201
16.400000000000002,0.07784954934164716,0.03255814447714467
16.5,0.07799314787491218,0.03261600032235928
16.6,0.0776111476160271,0.03246207540524618
16.7,0.07782908931241288,0.032549900504562745
16.8,0.07765945037451379,0.03248154175113758
16.900000000000002,0.07792583141508563,0.032588879482166114
17.0,0.07762053529005267,0.032465858771145654
17.1,0.07750553361341116,0.032419509191561315
17.2,0.07756971200679089,0.03244537587270584
17.3,0.07758662729793744,0.03245219321349078
17.400000000000002,0.07727834383767514,0.03232792945834992
17.5,0.0771383445818343,0.03227148642697661
17.6,0.07725383731640201,0.032318049775834023
17.7,0.07727199964847792,0.03232537185149809
17.8,0.07723805750343055,0.03231168810353853
17.900000000000002,0.07691961808354186,0.03218328851101768
18.0,0.07693539357488068,0.0321896503216324
18.1,0.07692163138464475,0.03218410042374303
18.2,0.0768390639976474,0.03215080186773108
18.3,0.07718660551832628,0.03229094445573174
18.400000000000002,0.07680044500418583,0.03213522635874862
18.5,0.07650604642993807,0.03201647347560702
18.6,0.07658056315301075,0.03204653469238192
18.7,0.07620193239595488,0.03189376751733867
18.8,0.07662909650991424,0.03206611269213725
18.900000000000002,0.07627191394564559,0.03192200721086906
19.0,0.07613199575349161,0.03186554411062833
19.1,0.07601883907382297,0.031819875079610066
19.200000000000003,0.07575565708617386,0.03171363858898686
19.3,0.0761296044115683,0.03186457903593519
19.400000000000002,0.07575614269848456,0.03171383463601468
19.5,0.07583011227268728,0.03174369593285407
19.6,0.07570422293127682,0.031692873554170345
19.700000000000003,0.07555798663330272,0.031633829503585016
19.8,0.0758448758337422,0.031749655692701606
19.900000000000002,0.0752459517874133,0.03150781614619685
20.0,0.07522131089641332,0.03149786351573679
20.1,0.07497604789991283,0.03139878761833473
20.200000000000003,0.07492429217237374,0.031377877600821384
20.3,0.07473538122331112,0.03130154646433908
20.400000000000002,0.07508140878459828,0.03144135173746719
20.5,0.07466469508589899,0.03127298165709391
20.6,0.07471394445933863,0.03129288390301025
20.700000000000003,0.07474360391527236,0.03130486919488904
20.8,0.07420796363868318,0.031088367692726087
20.900000000000002,0.07441540145198447,0.031172225198325635
21.0,0.0741084865264242,0.031048147956050556
21.1,0.07408698290504323,0.03103945330582915
21.200000000000003,0.07375231619697424,0.03090411365930334
21.3,0.07367081065647679,0.03087114632645036
21.400000000000002,0.07384829673973445,0.030942932627660423
21.5,0.07363835836080275,0.030858019336503346
21.6,0.07343184210522681,0.03077447398202262
21.700000000000003,0.07329475913268586,0.03071900871822602
21.8,0.07355572944998648,0.030824594058150922
21.900000000000002,0.07314144906476096,0.030656969402658316
22.0,0.0731747515614862,0.030670446532037748
22.1,0.07292659551938642,0.030570010641289367
22.200000000000003,0.07273927370158816,0.030494180724634053
22.3,0.07252853772045903,0.0304088566699403
22.400000000000002,0.07327296284800955,0.030710189051309126
22.5,0.0724937212676345,0.030394758360909595
22.6,0.07216186678788213,0.030260356761599893
22.700000000000003,0.07162035136381407,0.030040952790852452
22.8,0.07152701456182542,0.030003124633319025
22.900000000000002,0.07134720717248352,0.0299302418141709
23.0,0.07080263665996321,0.029709431888693027
23.1,0.07118791607283109,0.029865664813801342
23.200000000000003,0.0716274584809991,0.03004383307540146
23.3,0.0706869812579996,0.029662522015767474
23.400000000000002,0.07128380957148989,0.02990454142239061
23.5,0.07153586088409089,0.03000671007076842
23.6,0.07100233860150527,0.029790419142425435
23.700000000000003,0.07033315968557416,0.029518980388163862
23.8,0.07021761765907644,0.02947209594597671
23.900000000000002,0.07005600545158897,0.02940650873385998
24.0,0.07089994908109522,0.029748897917103105
24.1,0.06884855137998759,0.02891617297345594
24.200000000000003,0.06921521852164707,0.02906513159678675
24.3,0.06882545234782633,0.028906787274618862
24.400000000000002,0.0696369568516918,0.02923639975082572
24.5,0.06853290539606177,0.028787900774203967
24.6,0.06921512656963412,0.029065094247661124
24.700000000000003,0.06718878152959804,0.028241251218838824
24.8,0.06902287777122192,0.028986999487060607
24.900000000000002,0.0660273164788939,0.027768333437317223
25.0,0.06845495240959437,0.02875621640897744
25.1,0.06883848465664148,0.028912082643743075
25.200000000000003,0.06802559633391667,0.02858166113202128
25.3,0.06796769680887949,0.02855811663465286
25.400000000000002,0.06645858244453541,0.027943993620354133
25.5,0.06726191648814588,0.028271012608008874
25.6,0.06631646547152402,0.027886115395160824
25.700000000000003,0.06746443445404833,0.028353414209790512
25.8,0.06733289820193296,0.028299895810022686
25.900000000000002,0.0658417543251395,0.02769272971405601
26.0,0.06726924533286291,0.02827399488053439
26.1,0.06470792621153687,0.027230487181860018
26.200000000000003,0.06558149159855897,0.027586668501880615
26.3,0.06554791415405513,0.02757298327110456
26.400000000000002,0.06577486548719913,0.027665473918658277
26.5,0.06179700067322609,0.026041494227113007
26.6,0.06373702847507334,0.026834277209170327
26.700000000000003,0.06375939472565557,0.026843408636234717
26.8,0.06478936877682398,0.0272637063428298
26.900000000000002,0.06496591942454959,0.027335709894302666
27.0,0.061995829281357565,0.026122811167626617
27.1,0.06126762127140378,0.025824914330831977
27.200000000000003,0.06223268889242745,0.026219662162347383
27.3,0.0624262712284811,0.02629880120739198
27.400000000000002,0.0621048594299325,0.026167395863804538
27.5,0.06290624743457963,0.026494959709148086
27.6,0.06149033314721269,0.025916043457326773
27.700000000000003,0.06012317554146185,0.02535632880258691
27.8,0.058898424713027135,0.02485430222045024
27.900000000000002,0.05949164300533728,0.025097535458346084
28.0,0.0638020082691603,0.02686080585614563
28.1,0.05616979598274856,0.02373374351075468
28.200000000000003,0.051815270790608166,0.021939471832022744
28.3,0.05572856237332338,0.02355227140170781
28.400000000000002,0.05815260553173933,0.024548305658531482
28.5,0.0607656613206311,0.025619452481942664
28.6,0.06436769438818575,0.02709168440446927
28.700000000000003,0.061985543217781346,0.02611860474594182
28.8,0.053373681889416415,0.022582463487017448
28.900000000000002,0.06128849414850784,0.02583345589567653
29.0,0.05933455346252678,0.025033138367309436
29.1,0.05516956712602609,0.023322256931948657
29.200000000000003,0.0657427190247979,0.02765237430236984
29.3,0.06223291192216513,0.026219753348181964
29.400000000000002,0.06135400567281295,0.025860263324170223
29.5,0.05000428576237595,0.02119107171674954
29.6,0.05283948902833658,0.022362165731769322
29.700000000000003,0.0730586709178968,0.030623468246742426
29.8,0.051567983109973806,0.021837354754274046
29.900000000000002,0.05780815424836971,0.024406910509985454
30.0,0.05863532027410454,0.024746379683823073
30.1,0.050693733474393446,0.021476142055178896
30.200000000000003,0.058040677444450336,0.02450236491094858
30.3,0.06212775136316288,0.02617675627022322
30.400000000000002,0.06831699974811165,0.028700139222389023
30.5,0.05813544766341516,0.024541263547677716
30.6,0.06686932481182815,0.02811122824490163
30.700000000000003,0.04037025665522235,0.017187927573088218
30.8,0.058109922266604386,0.024530786937411803
30.900000000000002,0.03776008344858199,0.016096961915459368
31.0,0.06498282555517952,0.02734260418155756
31.1,0.04729425192153363,0.02006871991347447
31.200000000000003,0.031891790805220366,0.013634157446093656
31.3,0.050172609655395654,0.02126068693652169
31.400000000000002,0.04799274950624481,0.020358278009996504
31.5,0.06047631237694833,0.02550097222186529
31.6,0.06024575642708319,0.025406542896435323
31.700000000000003,0.04812113943218131,0.020411480306617977
31.8,0.04386593181054938,0.0186447239404144
31.900000000000002,0.06805735256250946,0.028594574071429398
32.0,0.04198907927469788,0.017863167297871466
32.1,0.05272144917147228,0.022313471763711238
32.2,0.06312311524347386,0.02658356101888096
32.300000000000004,0.06042050865895934,0.025478118449293697
32.4,0.031131708522091697,0.013314142132260438
32.5,0.06404927764366239,0.026961741223277897
32.6,0.04483625756423098,0.0190482349367944
32.7,0.04290061096150518,0.018242921880320718
32.800000000000004,0.007648322349616317,0.00330898616488246
32.9,0.039051341884532714,0.016637007563191846
33.0,0.07356408282858891,0.030827973307144423
33.1,0.06652489593929756,0.02797099765967475
33.2,0.06177943333750564,0.026034308804593648
33.300000000000004,0.03396730703851688,0.014506807039127144
33.4,0.06260483752295949,0.02637178870974811
33.5,0.07196633980216117,0.030181148539874993
33.6,0.01883573841582989,0.008104170610936837
33.7,0.017111648492007307,0.0073686281072176145
33.800000000000004,0.09681908611397783,0.040134999150038764
33.9,0.038775040012971634,0.016521505729245357
34.0,0.06723588249202055,0.028260418621109396
34.1,0.07156004805127031,0.030016513041503986
34.2,0.021145927025264268,0.009087809445664601
34.300000000000004,0.06975106901041055,0.02928272914997876
34.4,0.03978824773056646,0.016944904485703974
34.5,0.07817687243327566,0.032690011704883844
34.6,0.055746407679571564,0.02355961235354622
34.7,0.14469905614249234,0.05869132472341769
34.800000000000004,0.019728607823766495,0.008484603323240573
34.9,0.2077485559979302,0.0819765269099499
35.0,0.04803030946225487,0.020373842802156258
35.1,0.08370157344087793,0.034909703926200554
35.2,0.06788427158857652,0.028524190020464628
35.300000000000004,0.18779495985586053,0.07474147811272212
35.4,0.16603374349786554,0.06671111852151874
35.5,0.0962833309466643,0.03992281068530148
35.6,0.021245560830813668,0.009130181745248453
35.7,0.17887995029624126,0.0714695815340592
35.800000000000004,0.01868833439950494,0.008041332824756933
35.9,0.015323663529401234,0.006604508138713248
36.0,0.17672040283189677,0.07067328363175934
36.1,0.11119981879615654,0.045792161908972624
36.2,0.1624061819346031,0.06535791097075187
36.300000000000004,0.23399418894449908,0.09131311454707679
36.4,0.07836790070148425,0.03276695193262313
36.5,0.2268661128662222,0.08879717102690261
36.6,0.2552616901985636,0.09873427463119835
36.7,0.15239508829288873,0.06160139857415028
36.800000000000004,0.1552629082765218,0.06268082978710271
36.9,0.15123020811510973,0.061162176902815786
37.0,0.23705125468913335,0.09238769410568885
37.1,0.0355515022981626,0.01517170304374652
37.2,0.0673855847037846,0.028321333256892407
37.300000000000004,0.13976654176083217,0.05681590396092114
37.4,0.26937522023794747,0.10359001609944192
37.5,0.18648531112849298,0.07426236595383899
37.6,0.2230914718881949,0.08745893802627899
37.7,0.292846893334376,0.11154709617417619
37.800000000000004,0.5338110513885763,0.18577186261589565
37.9,0.22939226392251094,0.0896904759506628
38.0,0.28161862467651566,0.10775881001939575
38.1,0.4053598873862003,0.1477875534879217
38.2,0.3137409874610431,0.11850974969520431
38.300000000000004,0.39321745130949065,0.14401890575170728
38.400000000000006,0.3803297507958144,0.1399828486069406
38.5,0.2586169831242741,0.0998935875953185
38.6,0.1971987950692196,0.07816627106904557
38.7,0.2016057757010493,0.07976200716763843
38.800000000000004,0.2971272449767526,0.1129825813891243
38.900000000000006,0.3773177092316383,0.13903413157929712
39.0,0.10754417068447268,0.04436105561925776
39.1,0.23610999477260428,0.09205711799981496
39.2,0.7527424220129996,0.2437180981145202
39.300000000000004,0.7500011874824706,0.2430383433816712
39.400000000000006,0.3201010363791579,0.12060717201092251
39.5,0.6944556093054919,0.22903019584309453
39.6,0.1622714861336229,0.06530758344021269
39.7,0.36679109349908556,0.13570214011735804
39.800000000000004,0.2960733956612105,0.11262959600070441
39.900000000000006,0.552602542309018,0.19106029296347551
40.0,1.4350456910749345,0.3865071147069345
