Frequency (Hz),Power,Log Power
0.0,0.01834214411434699,0.007893717427180931
0.1,0.01834217451976116,0.007893730394240657
0.2,0.01834226589535302,0.007893769363375488
0.30000000000000004,0.018342418158370212,0.007893834299287002
0.4,0.018342631417923836,0.007893925248496208
0.5,0.018342905442875413,0.007894042112412838
0.6000000000000001,0.018343240541703283,0.007894185022573141
0.7000000000000001,0.01834363658605506,0.007894353924212847
0.8,0.018344093594482126,0.007894548825213264
0.9,0.018344611615550545,0.007894769746251395
1.0,0.01834519079746971,0.007895016750494439
1.1,0.018345830976532796,0.007895289768081848
1.2000000000000002,0.01834653221697061,0.007895588826357106
1.3,0.01834729470539687,0.007895914004851415
1.4000000000000001,0.018348118355782275,0.007896265266817366
1.5,0.018349003260364614,0.007896642651528146
1.6,0.018349949450838423,0.007897046172432434
1.7000000000000002,0.018350957039147183,0.007897475877197765
1.8,0.018352026071713566,0.007897931785544189
1.9000000000000001,0.01835315652955837,0.007898413889295047
2.0,0.018354348477598734,0.007898922216048328
2.1,0.01835560213967929,0.007899456861174018
2.2,0.01835691743412557,0.007900017789743558
2.3000000000000003,0.018358294566753586,0.007900605089428497
2.4000000000000004,0.018359733510704603,0.007901218748667643
2.5,0.01836123432232709,0.007901858791379765
2.6,0.018362797219870188,0.007902525310523417
2.7,0.01836442207794784,0.007903218252504365
2.8000000000000003,0.018366109383619253,0.007903937824908329
2.9000000000000004,0.018367858813574296,0.007904683889723716
3.0,0.018369671577718374,0.007905456962790852
3.1,0.01837154600749046,0.007906256332391363
3.2,0.01837348262056851,0.007907082219148508
3.3000000000000003,0.01837548209772231,0.007907934913230647
3.4000000000000004,0.018377545299698976,0.007908814781551974
3.5,0.018379673844456195,0.007909722513935404
3.6,0.018381861214273182,0.007910655330688937
3.7,0.01838411257690171,0.007911615435461821
3.8000000000000003,0.0183864293679243,0.007912603440282306
3.9000000000000004,0.018388809349174935,0.007913618390488384
4.0,0.01839124738256856,0.007914658094747116
4.1000000000000005,0.018393755444896968,0.007915727660389067
4.2,0.018396330530609437,0.007916825805478285
4.3,0.018398964882955057,0.007917949221944987
4.4,0.018401668841570358,0.0079191023189016
4.5,0.018404423868390467,0.007920277190628183
4.6000000000000005,0.018407254827118583,0.007921484439945312
4.7,0.01841014432745586,0.00792271665060144
4.800000000000001,0.01841312310820264,0.007923986930710461
4.9,0.0184161322703972,0.00792527016300191
5.0,0.018419221696789393,0.00792658761935075
5.1000000000000005,0.018422380768545698,0.007927934771166665
5.2,0.018425585179341494,0.007929301253054015
5.300000000000001,0.018428904119920674,0.007930716570237263
5.4,0.018432210247152588,0.007932126418756826
5.5,0.018435650195947263,0.007933593328622294
5.6000000000000005,0.018439148329911864,0.007935085045520004
5.7,0.018442724701111052,0.007936610119995467
5.800000000000001,0.018446318179761247,0.007938142484219307
5.9,0.01845000225333331,0.007939713475150252
6.0,0.01845374310916774,0.007941308673794459
6.1000000000000005,0.018457543758653792,0.007942929364013095
6.2,0.018461508282689314,0.007944619927916721
6.300000000000001,0.018465488860829018,0.007946317331037515
6.4,0.018469510812162544,0.007948032369829543
6.5,0.018473549539015408,0.00794975455521626
6.6000000000000005,0.018477730125038068,0.007951537224697762
6.7,0.018481947634305825,0.007953335631433441
6.800000000000001,0.018486334569762407,0.007955206276035865
6.9,0.01849065131366673,0.007957046982210197
7.0,0.0184952677103541,0.007959015454931464
7.1000000000000005,0.018499720113272004,0.00796091399079436
7.2,0.018504209375712677,0.007962828235413704
7.300000000000001,0.018508765575628465,0.007964771013890044
7.4,0.018513520543474986,0.007966798538391344
7.5,0.018518414920426288,0.007968885497231109
7.6000000000000005,0.018523349995882107,0.007970989799730124
7.7,0.01852823681812579,0.007973073517146262
7.800000000000001,0.01853336008086305,0.007975258040912732
7.9,0.018538401153159037,0.007977407508518846
8.0,0.01854350596357931,0.00797958414264327
8.1,0.018548773163349883,0.007981830006337206
8.200000000000001,0.0185543736427431,0.007984217963275336
8.3,0.01855955432115735,0.00798642691194232
8.4,0.018565193911497677,0.007988831519678894
8.5,0.018570321276811914,0.007991017713426063
8.6,0.01857614262556959,0.007993499792832148
8.700000000000001,0.018581894477562446,0.007995952226600917
8.8,0.018587622552608648,0.007998394508761279
8.9,0.01859381364077724,0.008001034190608781
9.0,0.01859890204864172,0.008003203712853943
9.1,0.01860575377485442,0.008006125036322604
9.200000000000001,0.018611736842414975,0.008008675979693505
9.3,0.018617627894955257,0.008011187676859386
9.4,0.018624259629939525,0.008014015152503553
9.5,0.01863058186690374,0.00801671065487361
9.600000000000001,0.018636859403844304,0.008019387082718158
9.700000000000001,0.018644266895669902,0.00802254524560794
9.8,0.018649733220129708,0.008024875782633063
9.9,0.018656927547848423,0.00802794302517382
10.0,0.018663236628740653,0.008030632832171888
10.100000000000001,0.018670603280327405,0.008033773501679817
10.200000000000001,0.018679040666567438,0.008037370636120224
10.3,0.018683511206980908,0.008039276562025249
10.4,0.018692002734283505,0.008042896732607609
10.5,0.01869804692496444,0.008045473518197392
10.600000000000001,0.018705938350406244,0.008048837801911863
10.700000000000001,0.01871299191624398,0.008051844866070959
10.8,0.018721052395331898,0.0080552811702783
10.9,0.018728888957865127,0.00805862198940348
11.0,0.018736013725207674,0.008061659339531721
11.100000000000001,0.01874244400883335,0.008064400606989118
11.200000000000001,0.018753149127803157,0.008068964223335055
11.3,0.018758401406760616,0.008071203264157164
11.4,0.018769293306640653,0.00807584643247105
11.5,0.018776552866463233,0.008078941122858452
11.600000000000001,0.018782811031781855,0.00808160890934152
11.700000000000001,0.018793732978812316,0.0080862647749982
11.8,0.018801929452708525,0.00808975877869066
11.9,0.018808788571362353,0.008092682671223997
12.0,0.018817737722681995,0.008096497469456811
12.100000000000001,0.018822725906042115,0.008098623792080165
12.200000000000001,0.018836849678121412,0.00810464430340733
12.3,0.0188437162742706,0.008107571283098665
12.4,0.01885311412985831,0.008111577214464516
12.5,0.018861139705529613,0.008114998168331456
12.600000000000001,0.018869232065229287,0.008118447562041097
12.700000000000001,0.01888139834492586,0.008123633425373662
12.8,0.018886660130909633,0.008125876236677163
12.9,0.018901096060034546,0.008132029423476114
13.0,0.018905396500526885,0.00813386243125415
13.100000000000001,0.018918994405848245,0.008139658313640306
13.200000000000001,0.01892665541448272,0.008142923657878743
13.3,0.018940035240915663,0.008148626469368238
13.4,0.018945061148128144,0.008150768615432095
13.5,0.01895637316102107,0.008155589991673375
13.600000000000001,0.018968418171398656,0.008160723725326105
13.700000000000001,0.01898141122954663,0.008166261460725988
13.8,0.01899504811305262,0.008172073523205847
13.9,0.019000599638060254,0.00817443957013991
14.0,0.01901044497510274,0.008178635597989098
14.100000000000001,0.01901739596852856,0.008181598048283355
14.200000000000001,0.019033855718082606,0.008188612963535508
14.3,0.019046458081904742,0.008193983838304148
14.4,0.019050921972928035,0.008195886243221791
14.5,0.019059291908395917,0.008199453289559937
14.600000000000001,0.019075804046058405,0.008206490242395545
14.700000000000001,0.019091654156968174,0.008213244953033378
14.8,0.019112542392295984,0.008222146559020907
14.9,0.019106138616043884,0.008219417583258316
15.0,0.019123163671648177,0.008226672790211692
15.100000000000001,0.0191482755862986,0.008237373981184772
15.200000000000001,0.019148272618510463,0.00823737271650711
15.3,0.019170830245218318,0.008246985198469042
15.4,0.01916182164467857,0.008243146388841488
15.5,0.019181387182789545,0.008251483753423211
15.600000000000001,0.01919488280382132,0.008257234481422118
15.700000000000001,0.01920707499816089,0.008262429730282442
15.8,0.019231694056629743,0.008272920034338131
15.9,0.019231596048315838,0.00827287827300731
16.0,0.019253768536953257,0.008282325865453084
16.1,0.019271589686748726,0.008289919224040846
16.2,0.019288608526351756,0.008297170604828714
16.3,0.019290540397930957,0.008297993728293913
16.400000000000002,0.019309085095690303,0.008305895093333897
16.5,0.019313755816641295,0.008307885131211211
16.6,0.019327153768490982,0.008313593499497035
16.7,0.01935874095321903,0.00832705132550434
16.8,0.019383359768923143,0.008337539965345628
16.900000000000002,0.019394863075070098,0.0083424407655673
17.0,0.019369589697397573,0.008331673373142114
17.1,0.019417873041820143,0.008352243629176878
17.2,0.019445743742657718,0.008364116999697184
17.3,0.0194027202840217,0.008345788172410185
17.400000000000002,0.01944271867695932,0.008362828288358218
17.5,0.019453437614997116,0.008367394656907565
17.6,0.019511379669061916,0.008392077686397834
17.7,0.019513467921904514,0.00839296724562744
17.8,0.01951924472949853,0.008395428055251097
17.900000000000002,0.019536040918551944,0.00840258283155794
18.0,0.019549549093737986,0.008408336906789276
18.1,0.019439671405117487,0.008361530113091053
18.2,0.019594427270520857,0.008427453109238637
18.3,0.019636385682477026,0.008445324854475935
18.400000000000002,0.019640754784932577,0.008447185785537915
18.5,0.019606867703049403,0.008432752057619095
18.6,0.01965456334204155,0.008453067209480991
18.7,0.019717791311246114,0.008479996630264428
18.8,0.01967321853044582,0.00846101281337565
18.900000000000002,0.019680087850780223,0.008463938552536495
19.0,0.019770153614589253,0.008502296991944231
19.1,0.019723470254507644,0.008482415266945032
19.200000000000003,0.019766323805467566,0.008500665969418503
19.3,0.01975515305522384,0.008495908583684006
19.400000000000002,0.019816607801967288,0.008522080212373655
19.5,0.019737225922485606,0.008488273688937606
19.6,0.01967745018266718,0.008462815135298252
19.700000000000003,0.019940028918714273,0.008574636589986626
19.8,0.019903133684673818,0.008558926169844657
19.900000000000002,0.02042734760163431,0.008782089249130475
20.0,0.02004058757863339,0.008617452752838954
20.1,0.019915062616656456,0.008564005710113998
20.200000000000003,0.02010077123553143,0.008643075908789648
20.3,0.020071295327454348,0.008630526747434461
20.400000000000002,0.02004006297751445,0.008617229397579822
20.5,0.020101490210073427,0.008643382002633456
20.6,0.020201332118430705,0.008685886271531542
20.700000000000003,0.02027743507473205,0.008718281701981459
20.8,0.020123170076147383,0.008652611815788781
20.900000000000002,0.02012943587520923,0.008655279330536152
21.0,0.020270682198104625,0.008715407241897469
21.1,0.020192373532344,0.008682072630573549
21.200000000000003,0.020328071663132188,0.00873983529561479
21.3,0.020145751263441224,0.008662225141693472
21.400000000000002,0.020329953326895196,0.00874063621000522
21.5,0.020180022377216493,0.008676814729096502
21.6,0.02034439261051556,0.008746782120754313
21.700000000000003,0.02047453406293159,0.008802171370617718
21.8,0.02031931458953437,0.00873610790129199
21.900000000000002,0.020253814324281742,0.008708227103128794
22.0,0.02051402267750076,0.0088189766460328
22.1,0.020468336980227913,0.00879953400250684
22.200000000000003,0.0205086524990097,0.008816691282999993
22.3,0.020554407890034036,0.008836162816465204
22.400000000000002,0.021031843542320242,0.009039286904792287
22.5,0.020580625156408537,0.008847319368024341
22.6,0.020296166411989825,0.00872625486835389
22.700000000000003,0.020719969458824695,0.00890661143101366
22.8,0.02033007650919184,0.008740688641464545
22.900000000000002,0.020383614735042237,0.00876347611641786
23.0,0.021088370483227085,0.009063329895358985
23.1,0.020682677459001073,0.008890744194073577
23.200000000000003,0.02073941747017744,0.008914886064414445
23.3,0.02029044081437243,0.008723817730481852
23.400000000000002,0.02105615563017338,0.009049627894605599
23.5,0.02046271350192051,0.008797140736357588
23.6,0.0205871067624228,0.008850077520313245
23.700000000000003,0.020650644322302136,0.008877114068744195
23.8,0.020841968551583084,0.008958516329766674
23.900000000000002,0.021165315020543328,0.009096055103027441
24.0,0.01982910564119005,0.008527402452971122
24.1,0.0211341734571266,0.009082810611485385
24.200000000000003,0.021185355617262255,0.009104578145318386
24.3,0.021211004123684766,0.009115485925050574
24.400000000000002,0.021193900645175304,0.009108212199531365
24.5,0.02106724629289353,0.009054345154704128
24.6,0.020544671071408498,0.008832019316873331
24.700000000000003,0.02051806270874908,0.008820695936278627
24.8,0.019480266300608763,0.008378823719163198
24.900000000000002,0.023621903465914036,0.010139570349776061
25.0,0.02208518143540021,0.00948709177302248
25.1,0.021582355319320772,0.009273383224005364
25.200000000000003,0.02096727250504324,0.00901182083493048
25.3,0.02150627023736044,0.009241036774759384
25.400000000000002,0.0216799602676447,0.00931487499936127
25.5,0.021952297464132707,0.009430624339199051
25.6,0.021713608072777838,0.009329177732153587
25.700000000000003,0.022064275095788573,0.009478208363933802
25.8,0.021727792302387694,0.009335206906906165
25.900000000000002,0.023599085449083523,0.010129889187994784
26.0,0.021835030205630178,0.009380786939150726
26.1,0.021891260320603557,0.00940468488357614
26.200000000000003,0.022587191637760982,0.009700348691829003
26.3,0.022030638951356245,0.00946391549346049
26.400000000000002,0.021867657158260136,0.009394653638624455
26.5,0.0221165525198325,0.00950042146415333
26.6,0.022031735002162687,0.009464381241299835
26.700000000000003,0.02193503485446027,0.009423288263471588
26.8,0.022796051768947435,0.009789042879650812
26.900000000000002,0.02276912816750193,0.009777610565827655
27.0,0.022637614992681125,0.009721763046607311
27.1,0.02292929339815256,0.009845615580910214
27.200000000000003,0.021793002080477502,0.009362924018352236
27.3,0.02145888757231258,0.009220891516879442
27.400000000000002,0.024015958619763713,0.010306724888343544
27.5,0.02177229094321179,0.009354121037934211
27.6,0.023606923904593024,0.010133214889422884
27.700000000000003,0.021461343317251518,0.009221935626639408
27.8,0.023429454897825656,0.010057912064969738
27.900000000000002,0.022666817476822133,0.009734164601622651
28.0,0.023366162403240784,0.010031052928746812
28.1,0.024034262097426925,0.01031448749032333
28.200000000000003,0.024510653803221163,0.010516478953800265
28.3,0.025270648037231423,0.010838524351459992
28.400000000000002,0.025661924695790376,0.01100423364686106
28.5,0.02513556425946786,0.010781300432599105
28.6,0.027411176231225888,0.011744285691559574
28.700000000000003,0.02871447868629075,0.012294852374035608
28.8,0.0313068804133511,0.013387915175830916
28.900000000000002,0.051388333352983075,0.021763153594967617
29.0,0.007517209669155606,0.003252473175942145
29.1,0.01694706510306043,0.007298347286599347
29.200000000000003,0.021699392788065028,0.009323135273084471
29.3,0.019484231261339174,0.008380512773159224
29.400000000000002,0.021914586476420368,0.009414598174284762
29.5,0.023521364352947667,0.0100969122879802
29.6,0.022133543451551618,0.009507640803805293
29.700000000000003,0.016127148534887982,0.006948054849565329
29.8,0.01835255097763096,0.007898155641027221
29.900000000000002,0.02406319527668158,0.010326757922132926
30.0,0.020746991632265285,0.00891810863477807
30.1,0.02396752514635352,0.01028618332596077
30.200000000000003,0.020622752491791477,0.008865245724111213
30.3,0.02308305763923578,0.009910892764118145
30.400000000000002,0.017375200330429157,0.007481147005856379
30.5,0.022798064967249666,0.009789897712881418
30.6,0.028871649681685055,0.012361200504212657
30.700000000000003,0.021402133895454943,0.009196760840896767
30.8,0.023743001822097574,0.010190945996377819
30.900000000000002,0.024478652428585226,0.010502913221293424
31.0,0.027452970977226532,0.01176195228775547
31.1,0.025777505853413797,0.011053171244796893
31.200000000000003,0.023760088782822066,0.010198194603512331
31.3,0.02290416111806143,0.00983494529830462
31.400000000000002,0.023179624031814127,0.009951882859711277
31.5,0.02411521969574884,0.010348820373299077
31.6,0.024650172279654957,0.010575617410637004
31.700000000000003,0.02339939031168314,0.010045153906031485
31.8,0.02346390998231104,0.010072532907778382
31.900000000000002,0.022045720378787638,0.009470324041441467
32.0,0.024818893056197038,0.010647123249529116
32.1,0.02394000690184781,0.010274511879321496
32.2,0.02645518945898145,0.011339994724165817
32.300000000000004,0.01927497035824001,0.008291359668917144
32.4,0.024547887282114225,0.010532262099184272
32.5,0.021937810599105427,0.009424467877541304
32.6,0.02382924104814886,0.01022752904750113
32.7,0.02433499704928983,0.010442010914593349
32.800000000000004,0.02334357570478619,0.01002146751629576
32.9,0.025365668123104573,0.01087877205278958
33.0,0.023576272224152733,0.010120209843560423
33.1,0.025696304947818625,0.011018790981146227
33.2,0.02536689363214021,0.010879291117851205
33.300000000000004,0.02538986570653505,0.010889020838455549
33.4,0.03642029034045795,0.01553590672274007
33.5,0.03676168825759033,0.015678940218510934
33.6,0.034139279800327785,0.014579034285188383
33.7,0.025175432694289693,0.010798190203246684
33.800000000000004,0.02729288163723603,0.011694278792250802
33.9,0.036149050693477194,0.015422233437800983
34.0,0.022309564096340443,0.009582423804260972
34.1,0.027997405882618003,0.011992018732908786
34.2,0.028384056197247275,0.012155334832713192
34.300000000000004,0.03470522138278591,0.014816640651767875
34.4,0.016389145574883607,0.007060018399087752
34.5,0.03283634586073525,0.014031512497149465
34.6,0.01516027462377811,0.006534614554296075
34.7,0.03771959360152378,0.01608001690043735
34.800000000000004,0.03246959173042868,0.013877269686161991
34.9,0.03763309406376881,0.016043814598843804
35.0,0.02709502934593727,0.011610627444665279
35.1,0.035853258855692176,0.015298236699744573
35.2,0.031260354676400974,0.013368322242826242
35.300000000000004,0.02639440586897573,0.011314276349280929
35.4,0.04075016574577865,0.017346488722851862
35.5,0.03123417973290808,0.013357299053834417
35.6,0.018971086169347767,0.00816186085111862
35.7,0.02920924835134789,0.01250368007417289
35.800000000000004,0.031242131785892212,0.013360647972521652
35.9,0.037002919046282425,0.01577997888075611
36.0,0.032323768567612036,0.013815926797069115
36.1,0.08730911106531165,0.03635302720116659
36.2,0.03916301927280817,0.016683683088522226
36.300000000000004,0.04473558601574815,0.019006387992733687
36.4,0.026871303857934774,0.011516017573301555
36.5,0.030560638036747415,0.013073550690652129
36.6,0.04366847528631484,0.018562565506182023
36.7,0.05110116244309603,0.021644516386504015
36.800000000000004,0.04732759427197325,0.020082546178904856
36.9,0.05448369394284228,0.023039868394710093
37.0,0.11966798691633365,0.04908926121798913
37.1,0.10203456612689916,0.042195216696112224
37.2,0.03251906937373967,0.013898081294357564
37.300000000000004,0.03134989382208332,0.013406028209755186
37.4,0.038904809253188774,0.0165757566909999
37.5,0.028139482129121856,0.012052037042316215
37.6,0.03223393753147553,0.013778133594963757
37.7,0.026733216995626752,0.011457612596291524
37.800000000000004,0.03926184678610779,0.01672498382969365
37.9,0.04197704227939018,0.01785815032510317
38.0,0.018893024078953387,0.008128588823852216
38.1,0.009314424499322047,0.0040264799665037385
38.2,0.03242041241718296,0.013856582575151169
38.300000000000004,0.030965680883545937,0.01324420859004258
38.400000000000006,0.03136174253569902,0.013411017594456717
38.5,0.05924250507072338,0.024995399727128904
38.6,0.028228932315696512,0.012089819885299235
38.7,0.04867658661074157,0.020641571790678565
38.800000000000004,0.05855150245933824,0.024711992907874545
38.900000000000006,0.04843409037823583,0.020541133814481607
39.0,0.022860645187812473,0.009816469344151322
