Frequency (Hz),Power,Log Power
0.0,0.0025888246974097306,0.001122859463851867
0.1,0.002588827337590019,0.001122860607506877
0.2,0.0025888276692804116,0.0011228607511862493
0.30000000000000004,0.0025888337166353826,0.0011228633707375114
0.4,0.0025888427232832506,0.0011228672721747927
0.5,0.0025888523724662393,0.0011228714519409507
0.6000000000000001,0.0025888621639537936,0.0011228756933495923
0.7000000000000001,0.0025888721010499825,0.0011228799978319302
0.8,0.0025888922575750418,0.0011228887290952536
0.9,0.002588908421123728,0.001122895730708792
1.0,0.002588929305956961,0.0011229047774553116
1.1,0.0025889552699778877,0.0011229160243687213
1.2000000000000002,0.002588978780089504,0.0011229262083145735
1.3,0.0025890130154811205,0.0011229410381618315
1.4000000000000001,0.0025890477934387007,0.001122956103033509
1.5,0.00258908600765602,0.001122972656399461
1.6,0.0025891316199784385,0.0011229924144236954
1.7000000000000002,0.0025891786249750467,0.0011230127757157805
1.8,0.00258922726721202,0.0011230338462151531
1.9000000000000001,0.0025892864785276126,0.0011230594949515334
2.0,0.002589349384781224,0.0011230867442333652
2.1,0.002589415073748412,0.0011231151989092901
2.2,0.002589493388572919,0.001123149122761118
2.3000000000000003,0.002589573725422159,0.0011231839224964215
2.4000000000000004,0.0025896671751377944,0.001123224402364713
2.5,0.002589765508007534,0.0011232669974782156
2.6,0.002589868509459237,0.0011233116148893392
2.7,0.0025899884960393607,0.0011233635897877634
2.8000000000000003,0.002590112791643687,0.0011234174312307514
2.9000000000000004,0.0025902495224725815,0.0011234766592639052
3.0,0.0025903921385868993,0.0011235384366321513
3.1,0.0025905477993904136,0.0011236058645900946
3.2,0.002590720097653751,0.0011236804994236122
3.3000000000000003,0.002590897157244894,0.0011237571967189323
3.4000000000000004,0.002591091502213144,0.0011238413815438644
3.5,0.002591300227420634,0.0011239317954695523
3.6,0.0025915237273010125,0.0011240286093496593
3.7,0.0025917641548976102,0.0011241327558175532
3.8000000000000003,0.00259202112134888,0.0011242440664242142
3.9000000000000004,0.0025922902425048167,0.0011243606420750045
4.0,0.0025925805618237704,0.0011244864001336058
4.1000000000000005,0.002592890667689896,0.001124620729120509
4.2,0.002593213828681243,0.0011247607131698433
4.3,0.002593565882380493,0.0011249132126581586
4.4,0.0025939327070523704,0.0011250721104478952
4.5,0.002594323317535488,0.001125241311496087
4.6000000000000005,0.0025947357017929336,0.0011254199442356858
4.7,0.00259517777161413,0.0011256114358073025
4.800000000000001,0.0025956398434423896,0.0011258115915664835
4.9,0.0025961252054343136,0.00112602183583189
5.0,0.0025966525120821337,0.0011262502491495515
5.1000000000000005,0.0025971920851986427,0.001126483975806624
5.2,0.0025977656137576503,0.0011267324107904343
5.300000000000001,0.0025983684189722915,0.0011269935273704383
5.4,0.002599003512406897,0.0011272686300390943
5.5,0.0025996708181622945,0.0011275576858928449
5.6000000000000005,0.0026003646085122167,0.001127858213835403
5.7,0.0026011066818597476,0.0011281796562087243
5.800000000000001,0.002601887685411227,0.0011285179616409057
5.9,0.002602690737215328,0.0011288658173868825
6.0,0.002603549814773429,0.001129237941346416
6.1000000000000005,0.0026044312444511246,0.0011296197471728664
6.2,0.0026053672683039883,0.0011300252010007234
6.300000000000001,0.0026063320070931783,0.001130443092770278
6.4,0.002607337438327228,0.0011308786106839382
6.5,0.002608418234533242,0.0011313467736005136
6.6000000000000005,0.0026094859374379453,0.0011318092644638585
6.7,0.0026106912040288004,0.0011323313424238253
6.800000000000001,0.002611873392066043,0.0011328434229780845
6.9,0.0026131242803507453,0.0011333852613055247
7.0,0.0026144514988605066,0.0011339601623113075
7.1000000000000005,0.0026157769805180563,0.0011345343102186743
7.2,0.002617204125374741,0.0011351524938831136
7.300000000000001,0.0026186540686491525,0.0011357805520346167
7.4,0.0026201960319787144,0.001136448468642407
7.5,0.002621723169647705,0.0011371099623568536
7.6000000000000005,0.002623392645818008,0.0011378331101482802
7.7,0.0026251255672776396,0.0011385837385324109
7.800000000000001,0.002626896533658286,0.0011393508450290284
7.9,0.002628688567527764,0.0011401270756768306
8.0,0.0026306181798432682,0.0011409628977353636
8.1,0.0026326126741994787,0.0011418268221117924
8.200000000000001,0.002634604014852583,0.0011426893787326831
8.3,0.0026371564155535407,0.001143794958097966
8.4,0.002639154833919239,0.0011446605765305779
8.5,0.0026413216591825604,0.0011455991387577529
8.6,0.0026436478297561052,0.001146606719285615
8.700000000000001,0.002645981724701542,0.0011476176432750939
8.8,0.0026483729861668404,0.0011486534130679142
8.9,0.002651297505066041,0.0011499201588205483
9.0,0.0026536391547200863,0.001150934434010993
9.1,0.002656711247301608,0.0011522650937324107
9.200000000000001,0.0026594355405140328,0.0011534451026912046
9.3,0.002662345583868939,0.0011547055645113997
9.4,0.0026653455877118995,0.0011560049881621053
9.5,0.002668403484771101,0.0011573294837176407
9.600000000000001,0.0026717941881114677,0.0011587981260479379
9.700000000000001,0.0026754355864817927,0.0011603753483815002
9.8,0.0026787585361629372,0.0011618146339844287
9.9,0.0026816086505907846,0.0011630491143192758
10.0,0.0026859879475590706,0.0011649459281615042
10.100000000000001,0.0026892159781902393,0.0011663440863592552
10.200000000000001,0.002693250711939812,0.001168091645872201
10.3,0.0026968626064034326,0.001169656055534344
10.4,0.00270123511932369,0.001171549902182989
10.5,0.002705608564643715,0.0011734441444165957
10.600000000000001,0.0027100968765997016,0.0011753881295067804
10.700000000000001,0.0027139578350063357,0.0011770603872290099
10.8,0.0027184324672576672,0.0011789984312185564
10.9,0.0027229315153263667,0.0011809470414199576
11.0,0.0027275036198407157,0.0011829272845877473
11.100000000000001,0.002733389665136115,0.0011854766008078607
11.200000000000001,0.002737622128147089,0.0011873097216255752
11.3,0.0027434202132463545,0.0011898209160084753
11.4,0.0027465550836024083,0.001191178645953627
11.5,0.0027534570567213264,0.0011941679142874163
11.600000000000001,0.0027646819438439485,0.0011990294076268373
11.700000000000001,0.0027643659289860534,0.0011988925424847442
11.8,0.002770068770177393,0.0012013624202567685
11.9,0.002775969886440918,0.0012039181553841418
12.0,0.0027811616650268672,0.0012061666685335977
12.100000000000001,0.0027897939792243536,0.0012099052212998132
12.200000000000001,0.0027936500944577185,0.0012115752486151826
12.3,0.0028013386782198596,0.0012149050430356274
12.4,0.0028067148351964112,0.0012172333497101546
12.5,0.002817517415630346,0.0012219116947335023
12.600000000000001,0.0028217469124907054,0.0012237433772103333
12.700000000000001,0.002830109021363234,0.0012273647611804935
12.8,0.0028401020632250794,0.0012316924147639647
12.9,0.0028473132443243964,0.0012348153103213422
13.0,0.0028582099881456864,0.0012395342440407896
13.100000000000001,0.002868099091942758,0.0012438167657293953
13.200000000000001,0.0028723800039675805,0.001245670621190052
13.3,0.002874440380798673,0.001246562867688279
13.4,0.0028787832680450018,0.0012484435496628577
13.5,0.0028930926663054118,0.0012546401593356467
13.600000000000001,0.0028990533310342876,0.0012572213677678507
13.700000000000001,0.0029111328766694387,0.0012624522515766526
13.8,0.0029222475073283354,0.0012672652363547793
13.9,0.0029344233103235765,0.0012725376809223673
14.0,0.0029405725204425625,0.0012752004271336232
14.100000000000001,0.0029542263948756373,0.0012811128033222313
14.200000000000001,0.0029583884086180874,0.0012829150150324047
14.3,0.0029698042615945454,0.0012878582048954064
14.4,0.002983905448180995,0.0012939640960664936
14.5,0.002989460915829956,0.001296369620471481
14.600000000000001,0.002998749052207978,0.0013003913653213477
14.700000000000001,0.003004292294552583,0.001302791560647616
14.8,0.0030125563579763764,0.0013063698328296136
14.9,0.0030646645482076368,0.0013289315759655279
15.0,0.003033826568821743,0.0013155795253651397
15.100000000000001,0.0030563124562751703,0.0013253153758657943
15.200000000000001,0.0030666891160159677,0.0013298081473085458
15.3,0.003082710016743869,0.0013367446085555223
15.4,0.003088952328904598,0.0013394472703233216
15.5,0.003095454930486611,0.00134226260870887
15.600000000000001,0.0031202521281587397,0.0013529985291568303
15.700000000000001,0.003129447023153371,0.0013569793817491216
15.8,0.003149377307982289,0.0013656079059794352
15.9,0.003149746388167461,0.0013657676922106743
16.0,0.003155362124187491,0.0013681989108273861
16.1,0.0031927375553289037,0.0013843794963478292
16.2,0.003211588266613746,0.0013925401245779715
16.3,0.003218769044160099,0.0013956487020103329
16.400000000000002,0.003256344773394809,0.0014119149709011754
16.5,0.003269381187722959,0.0014175582006223785
16.6,0.003193898284663844,0.0013848819900707367
16.7,0.0032352426487840904,0.0014027800845824898
16.8,0.003280674154073794,0.001422446663740981
16.900000000000002,0.003323091028668671,0.001440807453148884
17.0,0.0033061865636279343,0.0014334901913418934
17.1,0.0033392662683903052,0.0014478089472758624
17.2,0.0033613600117095212,0.0014573720985330896
17.3,0.0033753110224000312,0.001463410605774616
17.400000000000002,0.0034010447198306515,0.0014745488701475014
17.5,0.003334210746323425,0.001445620663669301
17.6,0.0033940767559001053,0.0014715329685711504
17.7,0.003525958105475909,0.0015286108206770577
17.8,0.003492381933845755,0.0015140798662030906
17.900000000000002,0.0034513392793719044,0.0014963169382497439
18.0,0.0035243728791403074,0.001527924784019719
18.1,0.003358349144412976,0.0014560688741249294
18.2,0.0034999094277597224,0.0015173376256708124
18.3,0.0033932076684251725,0.001471156805240183
18.400000000000002,0.0035341713371205372,0.001532165234547994
18.5,0.0035337996984021176,0.0015320044022822006
18.6,0.003624550529336746,0.001571276425962298
18.7,0.0037193102183143787,0.001612279475679008
18.8,0.003686098934678879,0.0015979092073163347
18.900000000000002,0.0035747793213811397,0.0015497385939634693
19.0,0.003924385021958233,0.0017010032428701467
19.1,0.003741279778430355,0.0016217852749720596
19.200000000000003,0.004088545645799612,0.0017720127987849432
19.3,0.0038412507685188424,0.0016650381412637956
19.400000000000002,0.0043800373428649056,0.0018980722627139498
19.5,0.0035731266650595047,0.0015490234104746986
19.6,0.004046952336011853,0.0017540222349553326
19.700000000000003,0.0039553266927967725,0.0017143883045635728
19.8,0.005039164001834189,0.0021829855161961194
19.900000000000002,0.0004668474323950629,0.00020270195201758638
20.0,0.005549468182631992,0.002403440651596709
20.1,0.005694385682986627,0.0024660256740176604
20.200000000000003,0.005581408050761912,0.0024172351874437955
20.3,0.0033816854142506465,0.0014661696475630562
20.400000000000002,0.0037999595511879684,0.0016471738458426635
20.5,0.0042360923263498875,0.0018358258976135457
20.6,0.004663722014095856,0.0020207203509511667
20.700000000000003,0.0052695884954587465,0.0022825444385661023
20.8,0.0029736667305804132,0.001289530683697823
20.900000000000002,0.003902020623479474,0.0016913283677679233
21.0,0.004689848187995123,0.0020320139862043795
21.1,0.004036660696866119,0.0017495706254090112
21.200000000000003,0.00361111581505828,0.001565462836282654
21.3,0.002668658431482153,0.0011574399109888485
21.400000000000002,0.004367160984978755,0.0018925044827745902
21.5,0.003839335255782616,0.0016642094271574373
21.6,0.0040171233395727935,0.0017411196899498294
21.700000000000003,0.004489960483207251,0.0019456004884164067
21.8,0.004864689152759257,0.002107585427524702
21.900000000000002,0.00452984609525772,0.001962844819374632
22.0,0.004525295419227271,0.0019608773935453285
22.1,0.005166281233887888,0.0022379115563580555
22.200000000000003,0.0032018744448041566,0.001388334950232274
22.3,0.004290364474300473,0.0018592959338701465
22.400000000000002,0.0036950525777676995,0.0016017834270014816
22.5,0.005800340214881619,0.002511778186300986
22.6,0.005093547239046081,0.0022064848003009725
22.700000000000003,0.0031913278413000404,0.0013837692133672698
22.8,0.005037437411845304,0.0021822394267146535
22.900000000000002,0.004915447427310816,0.0021295221937929114
23.0,0.004231982012190926,0.0018340483371127136
23.1,0.005007110817369539,0.0021691345702592128
23.200000000000003,0.0043213262376184435,0.001872684806415573
23.3,0.00594510193898202,0.0025742803466228203
23.400000000000002,0.004611357149469603,0.0019980835582155514
23.5,0.005798889143211647,0.0025111516276804607
23.6,0.005381800599474696,0.002331019373496958
23.700000000000003,0.005605178345230266,0.002427501075045786
23.8,0.004592876807908255,0.001990094414823931
23.900000000000002,0.006463437320730537,0.0027980025150146763
24.0,0.007337753743500147,0.0031751110631565646
24.1,0.005394926987925433,0.0023366895386558216
24.200000000000003,0.0045271390468731194,0.0019616744631484454
24.3,0.005330039676770425,0.0023086596472911085
24.400000000000002,0.00568775956822881,0.0024631642733807294
24.5,0.005995439830741315,0.0025960120709679724
24.6,0.005582671676863372,0.002417780926947217
24.700000000000003,0.005588453111039775,0.002420277825325788
24.8,0.008647079792939105,0.003739235503754219
24.900000000000002,0.0019510210826463711,0.0008464921964609985
25.0,0.00455615109088256,0.0019742172687999024
25.1,0.006119405266780713,0.0026495254228702724
25.200000000000003,0.005423234243274993,0.0023489170836760134
25.3,0.005143540560957879,0.002228086057162217
25.400000000000002,0.0052507165036540125,0.002274391323292185
25.5,0.005260324517946555,0.002278542215780935
25.6,0.005540197236088381,0.002399436532839445
25.700000000000003,0.005112312931462399,0.002214593260063397
25.8,0.005002926358242461,0.0021673263330116493
25.900000000000002,0.005380919727443144,0.0023306388632967343
26.0,0.005329416793286133,0.002308390566558168
26.1,0.005591962066111829,0.002421793273481055
26.200000000000003,0.0049330253136183845,0.0021371187655053153
26.3,0.006174475602803698,0.002673296049302778
26.400000000000002,0.0073502481114396685,0.003180497738459156
26.5,0.003578104216603035,0.0015511774316918595
26.6,0.008164608967946161,0.003531447714603068
26.700000000000003,0.006070295292489772,0.002628326436672016
26.8,0.0052812933590796725,0.0022876011200237798
26.900000000000002,0.005829905559418922,0.002524544017413328
27.0,0.0054246314424050675,0.0023495206060833605
27.1,0.005286212240519542,0.002289726135036265
27.200000000000003,0.006662820024478628,0.002884028722255213
27.3,0.005818360259797784,0.0025195589909526197
27.400000000000002,0.005519174114045638,0.0023903565165793996
27.5,0.004843090316060446,0.0020982504827232037
27.6,0.005856597074682681,0.0025360686538596195
27.700000000000003,0.006656326881284125,0.002881227441331621
27.8,0.007293988630495283,0.003156242158551178
27.900000000000002,0.005650685359002508,0.002447153915173456
28.0,0.004155357886145044,0.0018009098737521217
28.1,0.00569560353284692,0.002466551584434782
28.200000000000003,0.008859324571878522,0.0038306123999531185
28.3,0.008996820030113345,0.0038897975099029527
28.400000000000002,0.006291321782973405,0.00272372736734269
28.5,0.005855797865469477,0.0025357235825143563
28.6,0.005845353453143904,0.002531214015438021
28.700000000000003,0.005125739891110023,0.0022203948162279746
28.8,0.003828173843653797,0.0016593805999977134
28.900000000000002,0.0023363966282567944,0.0010135006539333678
29.0,0.01175631216746746,0.005075922557993833
29.1,0.009008762239336821,0.003894937669685597
29.200000000000003,0.009299059896568406,0.004019868733353606
29.3,0.0060886922210771615,0.0026362678415205202
29.400000000000002,0.004383241977780846,0.001899457946407897
29.5,0.005208954207307305,0.0022563485491726106
29.6,0.00838288084553205,0.0036254641192146535
29.700000000000003,0.010615429079202621,0.004585924332459035
29.8,0.005568606570752282,0.0024117063983549484
29.900000000000002,0.011346646728300722,0.004900038833138392
30.0,0.0063732396445179565,0.002759079979933556
30.1,0.00431159923675413,0.0018684785796358552
30.200000000000003,0.006007544714945999,0.002601237793250255
30.3,0.005812820234936997,0.002517166900145901
30.400000000000002,0.006641983728506373,0.0028750394342471944
30.5,0.00837064570754046,0.003620194607749713
30.6,0.00829271727078306,0.0035866303642519523
30.700000000000003,0.006951140152762423,0.0030083979847527432
30.8,0.006171436539767574,0.0026719842983768784
30.900000000000002,0.007189249644271506,0.003111081630100202
31.0,0.007669016768896616,0.003317905328058946
31.1,0.010304059655741722,0.004452098097157469
31.200000000000003,0.008825222316495516,0.0038159317885983783
31.3,0.007031282940305904,0.0030429619114422037
31.400000000000002,0.01117814991609004,0.004827676569840478
31.5,0.016378471264585207,0.007055457332665378
31.6,0.014288688876773275,0.006161582356384617
31.700000000000003,0.006784195386157019,0.0029363893252174565
31.8,0.007556050186232637,0.0032692152195977924
31.900000000000002,0.006565436284847539,0.0028420133962241247
32.0,0.005428025958840702,0.002350986869413238
32.1,0.007030626080956427,0.0030426786327708436
32.2,0.0050871874918941035,0.0022037367856108402
32.300000000000004,0.006855739825050798,0.0029672502100183936
32.4,0.008566521091873112,0.0037045478540719255
32.5,0.010544040693559487,0.004555245326241705
32.6,0.005018265008245502,0.0021739546124396494
32.7,0.0055691225570479105,0.0024119292473400882
32.800000000000004,0.006179127879213367,0.0026753041039205296
32.9,0.016491686318625565,0.007103830981228753
33.0,0.01778673809946958,0.0076567876575905375
33.1,0.008708596724630775,0.003765722121157904
33.2,0.021829136571771577,0.009378282053362916
33.300000000000004,0.0060944451054343665,0.0026387511601459294
33.4,0.007720313033247828,0.003340012902238591
33.5,0.004576397180249594,0.001982970066020851
33.6,0.005355616605737663,0.0023197085341028103
33.7,0.008680858072099958,0.0037537792177173923
33.800000000000004,0.014413876616598544,0.00621518148481466
33.9,0.0074051990723175455,0.003204187858392958
34.0,0.013512037826553133,0.005828911322662343
34.1,0.007647162772063793,0.003308486388908094
34.2,0.007173260646503054,0.003104187207207926
34.300000000000004,0.01056420501842754,0.004563911121396789
34.4,0.015488858885814196,0.006675163042691416
34.5,0.012779390146151454,0.005514854959149205
34.6,0.012595381857002604,0.00543594236882139
34.7,0.008115268115361977,0.003510192272580841
34.800000000000004,0.027903096139439486,0.011952174196618658
34.9,0.019147235039135235,0.008236930567667118
35.0,0.00456745275173241,0.001979103228960931
35.1,0.007225669461985049,0.0031267853718830473
35.2,0.012655788583644117,0.005461849583137213
35.300000000000004,0.012371035766360523,0.0053397113708619805
35.4,0.00865565806058809,0.003742929043880166
35.5,0.0102459709074227,0.004427127052163805
35.6,0.006245563310702407,0.002703978509909804
35.7,0.007081582088942443,0.0030646534889909585
35.800000000000004,0.007285120680263059,0.003152418727806924
35.9,0.008243601398802577,0.0035654745318658
36.0,0.008544088588170727,0.0036948881829295854
36.1,0.006353555703698634,0.002750585407396475
36.2,0.015026083575385764,0.006477202650519762
36.300000000000004,0.016606100322691473,0.0071527114344929355
36.4,0.016137218091431562,0.006952358573937014
36.5,0.02859055331074108,0.012242531394893456
36.6,0.02173207126473766,0.009337025714087078
36.7,0.012876595639372594,0.005556536083333428
36.800000000000004,0.03275520834892776,0.013997393870357384
36.9,0.010007395136135005,0.00432455363913628
37.0,0.007266296265945836,0.003144302440285498
37.1,0.013100683890721023,0.005652608524421639
37.2,0.005840454652567636,0.002529098852076362
37.300000000000004,0.011115370974131962,0.004800712582863095
37.4,0.012637173431360744,0.005453866088335987
37.5,0.0038844493185513904,0.0016837268415254736
37.6,0.009762396794240758,0.004219193682861016
37.7,0.014230924561313476,0.0061368483352830265
37.800000000000004,0.018624275797863087,0.008014022045761699
37.9,0.017579051181011034,0.00756815761041361
