Frequency (Hz),Power,Log Power
0.0,0.10500573034917426,0.043364530195403615
0.33333333333333337,0.10500569694800388,0.04336451706792042
0.6666666666666667,0.10500559731155237,0.043364477908336745
1.0,0.10500542900060801,0.04336441175797498
1.3333333333333335,0.10500518419073639,0.04336431554162591
1.666666666666667,0.10500485923650518,0.043364187826523494
2.0,0.10500444050746209,0.04336402325553023
2.3333333333333335,0.10500392352158505,0.04336382006705606
2.666666666666667,0.10500328930340298,0.04336357080320284
3.0000000000000004,0.1050025273470579,0.04336327133481806
3.333333333333334,0.10500162722043224,0.04336291756170343
3.666666666666667,0.10500056962403316,0.0433625018985147
4.0,0.10499934648025955,0.043362021170359304
4.333333333333334,0.10499793800992038,0.04336146760325725
4.666666666666667,0.10499633821662598,0.04336083884018083
5.000000000000001,0.1049945312966132,0.04336012866947235
5.333333333333334,0.10499250667464674,0.04335933293435455
5.666666666666667,0.10499026631340966,0.04335845240575082
6.000000000000001,0.10498780925304033,0.043357486705889875
6.333333333333334,0.10498513266547199,0.043356434722683045
6.666666666666668,0.1049822419475592,0.04335529857664515
7.000000000000001,0.1049791501843878,0.043354083410000605
7.333333333333334,0.10497589148745502,0.043352802629107415
7.666666666666668,0.10497247176076316,0.04335145855387328
8.0,0.10496892894008684,0.043350066093901594
8.333333333333334,0.10496539173802857,0.04334867583780135
8.666666666666668,0.1049618143005094,0.04334726976309468
9.000000000000002,0.10495821758680658,0.04334585610749492
9.333333333333334,0.10495484879595199,0.04334453203072362
9.666666666666668,0.10495184851470972,0.04334335279036086
10.000000000000002,0.10494860493927768,0.0433420779212512
10.333333333333334,0.1049465051381485,0.04334125260421299
10.666666666666668,0.10494518438437349,0.043340733487299554
11.000000000000002,0.10494574808069086,0.04334095504592629
11.333333333333334,0.10494413047618728,0.043340319252517245
11.666666666666668,0.10494547234541564,0.04334084666927199
12.000000000000002,0.10494935088735502,0.04334237111228566
12.333333333333334,0.1049586379489976,0.04334602132726726
12.666666666666668,0.10495939826310154,0.043346320162078796
13.000000000000002,0.1049681275396092,0.04334975111316115
13.333333333333336,0.10498152430929093,0.043355016521034365
13.666666666666668,0.10499586980157366,0.04336065473991865
14.000000000000002,0.10501540895682115,0.043368334110052954
14.333333333333336,0.10503454977450065,0.04337585679203097
14.666666666666668,0.10508081295529037,0.04339403850731513
15.000000000000002,0.10509014798076124,0.043397707137590516
15.333333333333336,0.10512803432279946,0.04341259601093341
15.666666666666668,0.10517361064487826,0.04343050627692099
16.0,0.10522049211295942,0.04344892865948963
16.333333333333336,0.10528676233379648,0.0434749686475284
16.666666666666668,0.10535670998861721,0.043502451939973506
17.000000000000004,0.10545049744199285,0.04353929945282788
17.333333333333336,0.10545622075334009,0.04354154794437743
17.666666666666668,0.10555009592306618,0.04357842659815313
18.000000000000004,0.10570084922846157,0.043637643150581815
18.333333333333336,0.10577432615976577,0.04366650228151802
18.666666666666668,0.1059958013170987,0.043753478263185354
19.000000000000004,0.1060183689458019,0.04376233986701005
19.333333333333336,0.10639885220239756,0.043911716556764235
19.666666666666668,0.1064266882961327,0.04392264291465942
20.000000000000004,0.1060623311044484,0.0437796019161883
20.333333333333336,0.10649409212279187,0.04394909945141877
20.666666666666668,0.10693890613129362,0.04412365207814697
21.000000000000004,0.10630867772356602,0.04387631894722293
21.333333333333336,0.1073425798371537,0.04428199984558088
21.666666666666668,0.10793924578823114,0.04451594636503599
22.000000000000004,0.10843138988524224,0.044708816154687456
22.333333333333336,0.10823598986373455,0.044632249726995483
22.666666666666668,0.10936351416099681,0.045073878273376736
23.000000000000004,0.10893801353391393,0.04490727100709876
23.333333333333336,0.10997304186536483,0.045312431118830626
23.666666666666668,0.11027020480555147,0.045428685250996866
24.000000000000004,0.11065397331561772,0.04557877461429053
24.333333333333336,0.11230325387916047,0.04622320768796487
24.666666666666668,0.11022461852031443,0.045410853304780424
25.000000000000004,0.11360362175871054,0.0467306347191315
25.333333333333336,0.11441636442319035,0.04704748077279001
25.666666666666668,0.11471428902312387,0.04716356819040701
26.000000000000004,0.11626191630160143,0.04776610809495185
26.333333333333336,0.11658314517372344,0.04789106788724559
26.66666666666667,0.11766164452321287,0.04831034723815587
27.000000000000004,0.1130452062307545,0.046512803524166
27.333333333333336,0.11755284343062788,0.04826806788248181
27.66666666666667,0.11831708227969781,0.048564958792025645
28.000000000000004,0.12070196577892026,0.04949013371297032
28.333333333333336,0.1215547657922992,0.049820485142064726
28.66666666666667,0.12169649146740943,0.049875361454762256
29.000000000000004,0.122709425341688,0.050267368639118036
29.333333333333336,0.12206512766296164,0.05001806526574965
29.66666666666667,0.12754896910087066,0.05213541223379006
30.000000000000004,0.12902383052719982,0.05270310876043185
30.333333333333336,0.12937293297386293,0.05283737504159429
30.66666666666667,0.1303872439486262,0.0532272479965706
31.000000000000004,0.13183727103455195,0.05378399101133252
31.333333333333336,0.13243044413930596,0.05401153637655147
31.66666666666667,0.1331677780636162,0.05429421674133577
32.0,0.14265228848797382,0.05791409376812042
32.333333333333336,0.14100853998910542,0.05728889494955932
32.66666666666667,0.14357518331327307,0.058264722178214615
33.00000000000001,0.14422730346430207,0.058512306654966324
33.333333333333336,0.1440659719263578,0.058451068528231634
33.66666666666667,0.14982976876322515,0.060633548215195114
34.00000000000001,0.15258705794393088,0.0616737387095993
34.333333333333336,0.15553629490097648,0.0627835910333568
34.66666666666667,0.15448967683513443,0.06239005391531635
35.00000000000001,0.1569840724728847,0.06332738031324553
35.333333333333336,0.15864528253105292,0.06395049772514992
35.66666666666667,0.16371565222541828,0.06584687571304487
36.00000000000001,0.16211469685334073,0.06524899358982565
36.333333333333336,0.1595782529278624,0.064300061872689
36.66666666666667,0.1663334593900551,0.06682273470157131
37.00000000000001,0.1782682170085501,0.07124416303819171
37.333333333333336,0.17702463284845896,0.07078555188185036
37.66666666666667,0.18241114805560274,0.07276851570248306
38.00000000000001,0.18196332667212162,0.07260400169666158
38.333333333333336,0.1800532193524631,0.07190159404333926
38.66666666666667,0.1852046938845766,0.07379336279125143
39.00000000000001,0.16829074703231503,0.06755093705580749
39.333333333333336,0.2247321094316518,0.08804110411378495
39.66666666666667,0.2067753619886702,0.08162643486258438
40.00000000000001,0.20974923830113262,0.08269535733431387
40.333333333333336,0.20575580618543424,0.08125936189661467
40.66666666666667,0.20822806334226351,0.08214891880707623
41.00000000000001,0.20947842894711585,0.08259812712305205
41.333333333333336,0.20943238388254792,0.0825815931381221
41.66666666666667,0.2889690061852258,0.11024247468113049
42.00000000000001,0.23184066641510245,0.09055453723446967
42.333333333333336,0.22791955890948795,0.08916991707713283
42.66666666666667,0.2451706813640746,0.09522888628633532
43.00000000000001,0.23713245880559647,0.09241620168942893
43.333333333333336,0.25319200027137895,0.09801761390749258
43.66666666666667,0.26380271976972436,0.10167928565347358
44.00000000000001,0.3139331936019363,0.1185732842590618
44.333333333333336,0.24134653061542696,0.09389303478324267
44.66666666666667,0.2448591378401519,0.09512021157651873
45.00000000000001,0.261314809879949,0.10082349508250703
45.333333333333336,0.2538047719709943,0.09822991842743108
45.66666666666667,0.2705063550840714,0.10397684173667664
46.00000000000001,0.28281539822457974,0.1081641643245586
46.333333333333336,0.34411140225590603,0.12843526528029908
46.66666666666667,0.22364776890179994,0.08765642268131967
47.00000000000001,0.2451203021791093,0.09521131452289017
47.333333333333336,0.24550483955151445,0.0953454193766877
47.66666666666667,0.24831885404289233,0.09632552994940687
48.00000000000001,0.2500533442799443,0.09692854631373765
48.333333333333336,0.27225882550443714,0.10457547220368006
48.66666666666667,0.25491343130030575,0.09861376756580512
49.00000000000001,0.36594667569728173,0.13543374553698534
49.333333333333336,0.2804692196912675,0.1073691432270169
49.66666666666667,0.27507531605467045,0.10553583840204175
50.00000000000001,0.2842373649153114,0.1086453015721175
50.333333333333336,0.2954692373717021,0.1124271045481321
50.66666666666667,0.31282955997921535,0.11820834683185012
51.00000000000001,0.31577755683110204,0.11918247437950141
51.333333333333336,0.47809334714753565,0.16970186225293266
51.66666666666667,0.24174419994093446,0.09403214012727326
52.00000000000001,0.2818896029495897,0.10785062510926496
52.333333333333336,0.29490815850535945,0.11223896712864743
52.66666666666667,0.312515036966963,0.11810428764703669
53.00000000000001,0.31946780549383,0.12039879806728314
53.33333333333334,0.3386654643568337,0.12667205935995948
53.66666666666667,0.42447337415042563,0.15365433594291167
54.00000000000001,0.09975959822451219,0.04129776099920879
54.33333333333334,0.25452216503626857,0.09847833888132217
54.66666666666667,0.27138252873075713,0.10427623908440323
55.00000000000001,0.26500000334720925,0.10209052666098654
55.33333333333334,0.28414244333045496,0.10861320046276983
55.66666666666667,0.29907419357962906,0.11363395549340505
56.00000000000001,0.304237491356685,0.11535668019539519
56.33333333333334,0.2079800777883638,0.08205977188616723
56.66666666666667,0.25789210007172264,0.09964338963612376
57.00000000000001,0.27197606868245294,0.10447894045003235
57.33333333333334,0.27681737824316227,0.10612878505282342
57.66666666666667,0.25562451046540985,0.09885978477249348
58.00000000000001,0.3046847162445279,0.11550557486331325
58.33333333333334,0.2690361323446947,0.1034739876223032
58.66666666666667,0.33240732622220076,0.12463701198756277
59.00000000000001,0.3135957938264671,0.11846174915350206
59.33333333333334,0.3434043724698436,0.1282067574928474
59.66666666666667,0.23138017627752952,0.09039215769904
60.00000000000001,0.21755442698806188,0.08548838410618492
60.33333333333334,0.30159247155871644,0.1144750279666309
60.66666666666667,0.2687994576736557,0.10339298434191677
61.00000000000001,0.35341333191622876,0.13143045022424485
61.33333333333334,0.2607896530081364,0.10064263601166845
61.66666666666667,0.2771560289288547,0.10624395784556895
62.00000000000001,0.2620737222699151,0.10108472435334533
62.33333333333334,0.2968797310401656,0.11289970270901747
62.66666666666667,0.29906944237006655,0.11363236711001716
63.00000000000001,0.2831286578146311,0.10827020475963217
63.33333333333334,0.3006144149808791,0.11414856307489384
63.66666666666667,0.21054061937477692,0.08297936666032495
64.0,0.2823029648157941,0.10799064640199751
64.33333333333334,0.2646359849490454,0.10196553541050109
64.66666666666667,0.23117662785403764,0.09032036243553529
65.00000000000001,0.23458462670242117,0.0915208647419965
65.33333333333334,0.221301777086919,0.08682298903100437
65.66666666666667,0.1853518946937182,0.07384729822526055
66.00000000000001,0.016836508151580647,0.007251130587003216
66.33333333333334,0.3525089933092474,0.13114016156536845
66.66666666666667,0.30470531174525706,0.11551243049794274
67.00000000000001,0.2517972359447314,0.0975339882659464
67.33333333333334,0.2570327556468707,0.09934659464008733
67.66666666666667,0.2514053128889697,0.09739799445919828
68.00000000000001,0.22670416388172954,0.08873983943050721
68.33333333333334,0.1624742161986533,0.0653833289711698
68.66666666666667,0.5144661130332837,0.18025956021274941
69.00000000000001,0.34548091881376725,0.128877543116013
69.33333333333334,0.29578509886558974,0.11253298138361072
69.66666666666667,0.3291679925647735,0.12357987457186537
70.00000000000001,0.3085595985137837,0.11679350742391484
70.33333333333334,0.2781475954295118,0.10658100732742698
70.66666666666667,0.30864595046196974,0.11682216560449002
71.00000000000001,0.4996661729916879,0.17599459548056476
71.33333333333334,0.2753825415183992,0.10564046771308626
71.66666666666667,0.27184242228079664,0.10443330677371057
72.00000000000001,0.3004361376176801,0.11408902953362565
72.33333333333334,0.2931956785418325,0.11166424466471814
72.66666666666667,0.2562901230762722,0.09908994537340607
73.00000000000001,0.31716369915271675,0.11963975310963505
73.33333333333334,0.3585264466145697,0.13306809730449912
73.66666666666667,0.32940342103902837,0.12365679203738532
74.00000000000001,0.2674488226967792,0.10293043232955128
74.33333333333334,0.31995381674931,0.12055873614387123
74.66666666666667,0.2447071160794202,0.09506717244828258
75.00000000000001,0.24485312942713752,0.09511811541412157
75.33333333333334,0.27057145141504346,0.10399909290684324
75.66666666666667,0.22026572196924807,0.08645441183808801
76.00000000000001,0.4144014822456936,0.1505727027954036
76.33333333333334,0.3674000644641664,0.1358955960382265
76.66666666666667,0.31802949865355135,0.11992513025730674
77.00000000000001,0.24655919695436654,0.09571290722822481
77.33333333333334,0.2974470541855663,0.11308964432842643
77.66666666666667,0.321379558625423,0.12102758410931459
78.00000000000001,0.30326923143259055,0.1150341422262808
78.33333333333334,0.5393369528102252,0.18733369502887934
78.66666666666667,0.30149751957307014,0.1144433447566223
79.00000000000001,0.5652794906111692,0.19459189484913447
79.33333333333334,0.11380654169559255,0.04680976429350954
79.66666666666667,0.3194312565427556,0.12038676804461172
80.00000000000001,0.29524585886796934,0.11235221244445916
80.33333333333334,0.4307151843287036,0.15555318639038795
80.66666666666667,0.6659849139888906,0.22167106441708165
81.00000000000001,0.10589717919616533,0.043714750310865164
81.33333333333334,0.21057775960428923,0.0829926909131786
81.66666666666667,0.24573278476080573,0.09542489420950302
82.00000000000001,0.25756441938201435,0.0995302412552466
82.33333333333334,0.28208652666074907,0.10791733624615343
82.66666666666667,0.35445901899593557,0.1317658693963749
83.00000000000001,0.38103432272035365,0.1402044721939978
83.33333333333334,0.40369933699006716,0.14727409478138512
83.66666666666667,0.10451113791701808,0.043170099665590315
84.00000000000001,0.1641271563426152,0.06600042041854029
84.33333333333334,0.13004614590674665,0.0530961784422404
84.66666666666667,0.16743486234969762,0.06723265822206961
85.00000000000001,0.20157390491159088,0.07975048800566467
85.33333333333334,0.15905326806179626,0.06410339583735954
85.66666666666667,0.5807220226343164,0.19885550392946927
86.00000000000001,0.18712456883477932,0.07449629327560335
86.33333333333334,0.2023102618081087,0.08001655385966784
86.66666666666667,0.20690844821075713,0.08167432730954372
87.00000000000001,0.23956482983374225,0.09326924550704951
87.33333333333334,0.2550562856222467,0.09866320309754371
87.66666666666667,0.30258020128437185,0.11480447277995494
88.00000000000001,0.5251592279705692,0.18331518677729725
88.33333333333334,0.166167745245324,0.06676102520396582
88.66666666666667,0.21353765345682538,0.08405325609838363
89.00000000000001,0.20272248586240788,0.08016543053007201
89.33333333333334,0.21244387407763504,0.08366164356910649
89.66666666666667,0.30363955977437623,0.11515753093627647
90.00000000000001,0.25313025979296283,0.09799621717849336
90.33333333333334,0.3442130768184666,0.12846811600336824
90.66666666666667,0.26011658744453453,0.10041072840440682
91.00000000000001,0.17450115499614727,0.06985344819596329
91.33333333333334,0.15163963724456564,0.06131660405282164
91.66666666666667,0.16105975748619036,0.06485457260561518
92.00000000000001,0.16290285208453417,0.06554343565204421
92.33333333333334,0.16583111703649706,0.06663564283185011
92.66666666666667,0.1224613294280702,0.050171387799819576
93.00000000000001,0.3294464888451662,0.12367086136148327
93.33333333333334,0.21926363222212727,0.08609762000750285
93.66666666666667,0.17597690110783223,0.07039879128099645
94.00000000000001,0.14424346184160894,0.058518439566260086
94.33333333333334,0.13232750231088,0.05397205571757572
94.66666666666667,0.11598600944106362,0.04765875010278694
95.00000000000001,0.09601482031501472,0.03981642671907512
95.33333333333334,0.36223082910415616,0.1342507047223288
95.66666666666667,0.42458470233288914,0.15368827643415534
96.00000000000001,0.27588792866000833,0.10581252853710489
96.33333333333334,0.20411609817254733,0.08066836264015148
96.66666666666667,0.23989885891396942,0.09338626031785222
97.00000000000001,0.2701838012778585,0.10386656985755201
97.33333333333334,0.19727310143929105,0.07819322552739583
97.66666666666667,0.31193667871475295,0.11791287410335197
98.00000000000001,0.4997776028531346,0.17602686371266665
98.33333333333334,0.29211498381405065,0.11130116274108844
98.66666666666667,0.23287837858014265,0.09092023627398106
99.00000000000001,0.2667058770092063,0.10267578550649162
99.33333333333334,0.2435022372795415,0.09464657097892243
99.66666666666667,0.19696203520184488,0.07808037583346064
100.00000000000001,0.1560307861520743,0.06296939989587032
100.33333333333334,0.18129013292188362,0.07235657640446437
100.66666666666667,0.29314493597944263,0.11164720343300831
101.00000000000001,0.2111519912592384,0.08319864753873805
101.33333333333334,0.18493266447289314,0.0736936716298833
101.66666666666667,0.19221023562767753,0.0763528461107519
102.00000000000001,0.17906910550842817,0.07153925993940896
102.33333333333334,0.15369640415392477,0.06209153902130887
102.66666666666667,0.1696404915526654,0.06805239462874121
103.00000000000001,0.24549965182667557,0.09534361046764804
103.33333333333334,0.20611202578659155,0.08138764770581408
103.66666666666667,0.20189938771461047,0.07986811393194698
104.00000000000001,0.2047389753507945,0.0808929607327628
104.33333333333334,0.20172262728728757,0.07980423859891672
104.66666666666667,0.18395501409658205,0.07333520111934824
105.00000000000001,0.1868035084157428,0.07437882150336945
105.33333333333334,0.15032321072098354,0.06081988288475221
105.66666666666667,0.19831440423049532,0.07857077974624374
106.00000000000001,0.194459694337867,0.07717149956770034
106.33333333333334,0.16902052833467932,0.06782213756406033
106.66666666666669,0.17225596609437904,0.06902245172035495
107.00000000000001,0.20682430100127341,0.08164404668400797
107.33333333333334,0.19577742300236342,0.07765034942026296
107.66666666666669,0.2706783917339873,0.10403564467727452
108.00000000000001,0.2689216026571567,0.10343479105834191
108.33333333333334,0.20346730025929927,0.08043429443665893
108.66666666666669,0.16936114024162166,0.06794865743435329
109.00000000000001,0.1712702264240238,0.06865710370244749
109.33333333333334,0.2506207406659295,0.0971256268730935
109.66666666666669,0.2368030665688589,0.09230055337913551
110.00000000000001,0.4893389357558433,0.17299354340560447
110.33333333333334,0.2881641785069457,0.10997121805147753
110.66666666666669,0.23510025377191374,0.09170221095019075
111.00000000000001,0.2000572400246464,0.07920196140927376
111.33333333333334,0.2683173414923197,0.10322793052982618
111.66666666666669,0.25968229584268004,0.10026102562507719
112.00000000000001,0.26820946452683364,0.10319098996152457
112.33333333333334,0.28689113178201175,0.10954180808061025
112.66666666666669,0.47567350623109095,0.16899028016512926
113.00000000000001,0.05121733254821923,0.021692512953902086
113.33333333333334,0.1553799535975952,0.06272482805092532
113.66666666666669,0.08903183936552557,0.037040577146608404
114.00000000000001,0.07256976042821454,0.030425548487303625
114.33333333333334,0.14170025242121612,0.05755209707374008
114.66666666666669,0.11697582536296205,0.0480437738093598
115.00000000000001,0.4564635830838449,0.16329963014909138
