Frequency (Hz),Power,Log Power
0.0,0.7785993516185483,0.25007812965931553
0.5,0.7786372117633743,0.25008737416790505
1.0,0.7787508363753376,0.2501151172992886
1.5,0.7789403163616326,0.25016137770190594
2.0,0.7792058111739585,0.25022618838030314
2.5,0.7795475626540077,0.25030960005109526
3.0,0.7799658620673734,0.2504116730628628
3.5,0.7804610893593364,0.2505324869340691
4.0,0.7810336945679832,0.250672135761123
4.5,0.7816842069745419,0.2508307303843994
5.0,0.7824132400265119,0.25100839950861364
5.5,0.7832215100490129,0.2512052941662423
6.0,0.7841098129756024,0.25142158193562336
6.5,0.7850790592684286,0.251657455318621
7.0,0.786130259115813,0.2519131279861018
7.5,0.7872645634178539,0.2521888445750524
8.0,0.7884831771316236,0.2524848594342381
8.5,0.7897876092491963,0.25280149712299554
9.0,0.7911791641558044,0.2531390286812964
9.5,0.7926598290811885,0.2534978866793501
10.0,0.7942299792654828,0.25387810890015416
10.5,0.7958950348240355,0.2542809497428277
11.0,0.7976523359811487,0.25470570343474336
11.5,0.7995095338762466,0.25515415190522717
12.0,0.8014627668948947,0.2556252904390511
12.5,0.8035248081923733,0.25612212058670947
13.0,0.8056884982718442,0.2566428317194929
13.5,0.8079609453130867,0.25718904482396193
14.0,0.8103441320106547,0.2577611386411764
14.5,0.8128447790170208,0.25836062014499056
15.0,0.8154622442608676,0.25898722142315095
15.5,0.818204027333767,0.259642615395033
16.0,0.8210748003984796,0.2603277847477635
16.5,0.8240715750975971,0.261041875691987
17.0,0.8272081521257618,0.2617880241836045
17.5,0.830469837928449,0.2625625770694156
18.0,0.8339086255265743,0.26337769315614384
18.5,0.8374475166944709,0.26421494311106064
19.0,0.8411962707846236,0.2651000865894687
19.5,0.8450479107269843,0.26600764805290916
20.0,0.8495229496936105,0.2670597246016476
20.5,0.8530891705720858,0.26789631805372566
21.0,0.8584271932640583,0.26914555161251996
21.5,0.8622211837096808,0.2700312626602116
22.0,0.866700045633712,0.27107453809274823
22.5,0.8726137877912769,0.2724482167097821
23.0,0.8775998459413404,0.2736030409563071
23.5,0.8827546606893217,0.27479373135459156
24.0,0.8886598802108611,0.27615375493231514
24.5,0.8937924079030609,0.27733237115968673
25.0,0.9023076026855725,0.2792807435938415
25.5,0.9071506706221704,0.2803850049678348
26.0,0.9128554237435931,0.28168214669057906
26.5,0.9201384762167697,0.2833325502078216
27.0,0.9263564195896105,0.28473664454355196
27.5,0.9355715870266528,0.2868092383135715
28.0,0.9421043029707239,0.2882725504886768
28.5,0.9501905368737272,0.2900770447319354
29.0,0.9606962101782286,0.29241030939258944
29.5,0.9686568921674601,0.2941700316166743
30.0,0.9725824246529342,0.29503515932077307
30.5,0.983011893205286,0.2973253189142985
31.0,0.9921525825270063,0.29932259875220946
31.5,1.0020934061160505,0.30148433528839474
32.0,1.010482760167268,0.30330035339201344
32.5,1.0211627809433503,0.3056012922478912
33.0,1.0309885376696086,0.3077074723753208
33.5,1.0445140660703414,0.3105901028070666
34.0,1.0518353982198108,0.31214251798357884
34.5,1.06280523282911,0.31445822443427224
35.0,1.0730816207128648,0.3166164013352427
35.5,1.086847754993181,0.31949076646931285
36.0,1.0984557717120529,0.3218998201980599
36.5,1.1021872503177699,0.32267139778061765
37.0,1.1170532028035034,0.3257317722346463
37.5,1.1315610785056538,0.32869778158925994
38.0,1.1358471993742896,0.32957017961013885
38.5,1.1528367672775024,0.333011101928394
39.0,1.1700934135313894,0.3364784288291938
39.5,1.1978357529298362,0.341995233919353
40.0,1.166500395980451,0.3357587727482423
40.5,1.1890250930146204,0.34025073995775473
41.0,1.205643911633283,0.3435353994480025
41.5,1.2244886245816573,0.34723018922811943
42.0,1.223257372277659,0.34698974110203756
42.5,1.2337935219796605,0.3490430271461462
43.0,1.2535570060862364,0.35286854848001703
43.5,1.2567917785022693,0.3534914910143778
44.0,1.2652249849141952,0.35511134314984943
44.5,1.2736539502139488,0.35672436582716277
45.0,1.280599833344594,0.35804908825057014
45.5,1.2903881005544626,0.35990907869283006
46.0,1.2987452163113182,0.36149083848027885
46.5,1.3000031992065668,0.36172844010315475
47.0,1.3107259388173835,0.36374843950016145
47.5,1.3191643147415424,0.3653315198572606
48.0,1.3122597615159965,0.36403662155472416
48.5,1.3359193802162812,0.36845784985671765
49.0,1.3372486585401762,0.3687049191903103
49.5,1.4620257822805454,0.3912925965414972
50.0,1.3131425269876669,0.3642023931585342
50.5,1.3264166321535964,0.3666874940735056
51.0,1.3214500294213354,0.36575933965838775
51.5,1.349841787178341,0.37103862258301895
52.0,1.333036916401733,0.36792161083092334
52.5,1.3416474793607849,0.3695215152915305
53.0,1.319939509515922,0.3654766611728252
53.5,1.3261082959974089,0.3666299301943357
54.0,1.3177439416570782,0.3650654545490807
54.5,1.331060054262197,0.3675534622373178
55.0,1.3174097584404825,0.36500283141442147
55.5,1.330931651073646,0.3675295390732346
56.0,1.321622985327498,0.3657916948660079
56.5,1.2857567344098237,0.35903000798175455
57.0,1.3174895803445614,0.36501779019127767
57.5,1.2849500779073761,0.3588767159480159
58.0,1.2811652845080799,0.3581567537331196
58.5,1.2652018243914402,0.3551069027350037
59.0,1.2798477648255935,0.3579058482708335
59.5,1.5225566435821156,0.4018409270274621
60.0,1.3425700532388558,0.3696925870860347
60.5,1.2480709734495414,0.3518100181474384
61.0,1.2820955543670773,0.3583338249487725
61.5,1.2376442720532468,0.3497910460155182
62.0,1.2168424673115574,0.3457348324883639
62.5,1.2183028495568258,0.3460208370849209
63.0,1.2486603134622982,0.35192385511061886
63.5,1.2347474952091821,0.34922845917604817
64.0,1.1906009216935358,0.34056326606245546
64.5,1.2179082747912318,0.3459435812289464
65.0,1.1956470483575592,0.34156252827789185
65.5,1.1996563433992664,0.34235483544792117
66.0,1.162254541772754,0.3349068180078063
66.5,1.1682387331506157,0.33610709833770475
67.0,1.1913894310991684,0.340719562749541
67.5,1.1316332177016193,0.328712479326479
68.0,1.104656211056651,0.32318116533336194
68.5,1.1082041690485236,0.32391266782960376
69.0,1.0509896102361278,0.31196346035444783
69.5,1.3797562816581677,0.37653248186710075
70.0,1.1881283364657937,0.34007279032336823
70.5,1.1201662143527416,0.32636990958278833
71.0,1.1043157069475458,0.32311089684079264
71.5,1.073802654729478,0.31676742609360875
72.0,1.1031017111588548,0.322860276740945
72.5,1.1149692376734306,0.32530405492343023
73.0,1.0362684181467134,0.3088350255490074
73.5,1.0478679295174071,0.3113019448178003
74.0,1.0801610632568794,0.31809696293180956
74.5,1.050145564328895,0.31178469790475677
75.0,1.0219873387467855,0.30577843180413117
75.5,1.0424607240976458,0.31015371393313534
76.0,1.0485595380324606,0.3114485905313925
76.5,1.0050265334755824,0.3021201242209312
77.0,0.9934197071102748,0.29959874741691667
77.5,0.9968493386989327,0.3003452988015938
78.0,0.929181087897334,0.285372995805263
78.5,0.9153734016745807,0.28225345218382347
79.0,0.9125778748637596,0.2816191274518301
79.5,1.1091852883551665,0.3241147334500328
80.0,1.0311742540879711,0.30774718305157117
80.5,0.8274408395570546,0.2618433262756988
81.0,1.1326788484992383,0.32892546171968357
81.5,0.9297432072108622,0.28549952086722014
82.0,0.8913815284184091,0.2767791433207986
82.5,0.9422119418615111,0.2882966200923715
83.0,0.904422713231348,0.2797633524770252
83.5,0.9715375381765511,0.29480505047732947
84.0,0.8797496542658984,0.2741000136197956
84.5,0.9196915926456819,0.2832314628855327
85.0,0.8786644019599736,0.2738492061813473
85.5,0.8855263780531591,0.27543261245778733
86.0,0.9039968931759437,0.27966623539423036
86.5,0.8713637293788652,0.2721582077616775
87.0,0.9099354912843665,0.2810186990527798
87.5,0.8691124896616115,0.2716354395110894
88.0,0.8075587142918909,0.2570924132300983
88.5,0.8193102650489159,0.2599067699311018
89.0,0.5472767149514112,0.189567989865948
89.5,1.1327816427222561,0.3289463940264902
90.0,0.9868387490617426,0.298162621395458
90.5,0.8513440965171497,0.26748714556552594
91.0,0.8558789659355619,0.26854964960897126
91.5,0.869929375774967,0.27182520424215467
92.0,0.8461664490544989,0.2662708541368466
92.5,0.8271227945760097,0.26176773575686174
93.0,0.8446250824222571,0.265908109692366
93.5,0.8368323660391771,0.2640695233030135
94.0,0.8459263386666734,0.26621436659841086
94.5,0.8220618792160896,0.26056312200347514
95.0,0.8310771210017746,0.26270663622969675
95.5,0.8249181385745017,0.2612433878266029
96.0,0.8455020450672113,0.26611453078928254
96.5,0.7942965680957583,0.25389422646883686
97.0,0.8281548344543221,0.2620129752607536
97.5,0.8436418035808545,0.2656765469566373
98.0,0.8483211467524765,0.2667774323305658
98.5,0.7361919832606745,0.23959774656670924
99.0,0.9215967830539225,0.28366226300684316
99.5,0.8452706087214769,0.26606006440111696
100.0,0.8256639891176287,0.26142084926611114
100.5,0.7720265777839314,0.24847023137628096
101.0,0.7374714134415027,0.23991766788848637
101.5,0.692858309853755,0.22862060971921605
102.0,0.7324709150107829,0.23866595234222704
102.5,0.73059852927903,0.2381963303010796
103.0,0.7155324333448007,0.23439893311182283
103.5,0.7391889530604608,0.24034676820949133
104.0,0.6893327270152207,0.227715195619213
104.5,0.7118120704723562,0.2334560843850688
105.0,0.7083802469103624,0.23258454126835165
105.5,0.7127489853147945,0.23369371890208154
106.0,0.7015448787974893,0.23084340824056526
106.5,0.7015654395491909,0.23084865604047336
107.0,0.6962438585117066,0.22948828824668516
107.5,0.7037198568074393,0.23139818512269922
108.0,0.6914319311748477,0.22825452502676022
108.5,0.6670811172752339,0.22195673235825217
109.0,0.7820644857178529,0.2509234153488418
109.5,0.6291413031555267,0.21195875436333467
110.0,0.5970194376451754,0.20331020205624628
110.5,0.6284606726770062,0.21177727481639746
111.0,0.6372075627092925,0.21410374210279956
111.5,0.6741239120999362,0.22378759962476255
112.0,0.6207968010178058,0.20972857084586605
112.5,0.6355076029014605,0.21365256734848193
113.0,0.657671409270867,0.21949844703250282
113.5,0.6692161759514839,0.22251258469796834
114.0,0.6508433699634674,0.2177058698785046
114.5,0.6446240459681456,0.21606663576804883
115.0,0.6277315731321443,0.21158278758070612
115.5,0.6759589437871658,0.22426337544874578
116.0,0.6421124351011416,0.21540288985545106
116.5,0.6421076113980763,0.21540161411412195
117.0,0.667145696626698,0.22197355572244098
117.5,0.7196337311412591,0.23543595534752887
118.0,0.6396524395073493,0.21475179951058307
118.5,0.6774912897748323,0.22466027381119522
119.0,0.4184017214034048,0.1517992496624794
119.5,0.5973465453272248,0.20339914681871618
120.0,0.4485526440322053,0.16093428317611974
120.5,0.633966044538217,0.21324302721297744
121.0,0.6241319424562697,0.21062130788117678
121.5,0.6072139590980519,0.20607369572434503
122.0,0.5983225852535373,0.2036644363402372
122.5,0.6077230545746796,0.20621123954381584
123.0,0.5931942174646938,0.20226872145827185
123.5,0.5870782389122042,0.20059833689366
124.0,0.5886803706516989,0.20103652953883003
124.5,0.5914819112238855,0.2018017067959817
125.0,0.6079884814665399,0.20628293343392606
125.5,0.5701964257230795,0.19595398442939005
126.0,0.5843081168890141,0.19983964723566397
126.5,0.5843631716326974,0.1998547387167357
127.0,0.5776302103189505,0.1980052140583401
127.5,0.6268936023811732,0.2113591513328686
128.0,0.6177586379055012,0.20891372738448102
128.5,0.69658502008075,0.22957562809945947
129.0,0.535198927426216,0.18616465830568604
129.5,0.5394079681665257,0.1873537301913685
130.0,0.6283342115842964,0.21174354757429678
130.5,0.6362928409892085,0.2138610302916751
131.0,0.5841739800096409,0.1998028757439624
131.5,0.563862586648611,0.19419858984783428
132.0,0.5725859750122945,0.1966143981254049
132.5,0.5533192384598433,0.19126072118478904
133.0,0.5777381729419694,0.19803493329600247
133.5,0.5372373061256119,0.1867409155060096
134.0,0.5757583727448407,0.1974896234144841
134.5,0.5233100488902871,0.18278830702475174
135.0,0.5241451590005078,0.18302633101328483
135.5,0.5570240107560742,0.1922953098439496
136.0,0.5263365455363149,0.18365030278962152
136.5,0.5299663177874233,0.1846818699286597
137.0,0.5362080122175747,0.1864500258789443
137.5,0.5777231920450037,0.19803080957516825
138.0,0.5575098393185626,0.19243079892559561
138.5,0.6372452208143873,0.214113731379374
139.0,0.4478642327769453,0.16072783967866403
139.5,0.4716361469612855,0.16780044661833549
140.0,0.5639836116203323,0.19423219794368402
140.5,0.5498349910608029,0.1902854618564023
141.0,0.5462584295852331,0.1892820802442086
141.5,0.5157427669133396,0.18062550446951844
142.0,0.5208378433911542,0.1820829106508328
142.5,0.5303469571656944,0.1847899043470858
143.0,0.5007805876217701,0.17631720353547534
143.5,0.5255495679429826,0.18342632324318192
144.0,0.518927973790419,0.1815371804941159
144.5,0.4885853438903327,0.17277373875978347
145.0,0.48831918245737516,0.17269607927093264
145.5,0.5016308803655033,0.1765631907763419
146.0,0.4958567422750579,0.1748900032754062
146.5,0.4563207136144494,0.16325702663580619
147.0,0.469227803864144,0.1670891383980843
147.5,0.5047456877497151,0.17746310741188864
148.0,0.4584943912177208,0.16390476333922033
148.5,0.7061581298895973,0.2320192799123469
149.0,0.4452847070514558,0.15995340731540872
149.5,0.4366622079316191,0.15735466759394695
150.0,0.5185267832246949,0.1814224562504073
150.5,0.4966629379947247,0.1751240043168458
151.0,0.4829065078272104,0.1711137711128992
151.5,0.5113747026678288,0.17937214873810572
152.0,0.48283729431770506,0.17109350028219897
152.5,0.49002667931061905,0.17319404463620092
153.0,0.48051446728697483,0.17041265558361096
153.5,0.5122290759377143,0.17961758407530026
154.0,0.4832185189940078,0.17120513929684747
154.5,0.46955183525849475,0.16718490947613784
155.0,0.4603739511734698,0.16446407779555083
155.5,0.4660842465222065,0.16615892715944736
156.0,0.4673528148180816,0.1665345494984576
156.5,0.4668247916446917,0.1663782416100117
157.0,0.4448289715038919,0.15981644146757837
157.5,0.48480259346296406,0.1716687174454163
158.0,0.48231353633628893,0.1709400745601777
158.5,0.640670757201764,0.21502143743538188
159.0,0.3906961517609765,0.1432322529049244
159.5,0.37041143911642993,0.1368509751212085
160.0,0.43917555515141854,0.1581137737720352
160.5,0.44572181279724643,0.16008473362930545
161.0,0.4544075102679654,0.16268610849306941
161.5,0.4605991932281525,0.16453105642000182
162.0,0.4607052904109236,0.16456260220463417
162.5,0.4689550315704958,0.16700850114102925
163.0,0.4472005312213661,0.16052871326750195
163.5,0.45591812830911016,0.1631369536698111
164.0,0.47030761974393204,0.16740820793226371
164.5,0.4494286052619499,0.16119682810467492
165.0,0.451601317584679,0.16184735372767553
165.5,0.4428788377667583,0.15922986380411652
166.0,0.43420570836720046,0.1566114467303638
166.5,0.43946737590151563,0.15820182647252062
167.0,0.3781722436469733,0.13930349898721395
167.5,0.42381911726992116,0.1534548198055743
168.0,0.4208744883087221,0.15255571660279055
168.5,0.6652248572745701,0.22147288509764143
169.0,0.4129081878373804,0.15011394188318045
169.5,0.3309843851292454,0.12417296043937563
170.0,0.43566440036969095,0.15705293147917096
170.5,0.3910304137003534,0.1433366255764032
171.0,0.4312898859589416,0.15572760239873049
171.5,0.43767992706886105,0.1576622091482522
172.0,0.4254430430258062,0.15394986872104066
172.5,0.4265481785107838,0.15428644357672683
173.0,0.4354772249973505,0.15699630645534582
173.5,0.42731361838622856,0.15451940953356966
174.0,0.4168636904027016,0.15132807088722988
174.5,0.4235147386740232,0.15336196807002136
175.0,0.443142579347341,0.15930924056323217
175.5,0.43628276282680634,0.15723994843444974
176.0,0.42898490371851844,0.15502764078091028
176.5,0.4105031657097504,0.1493740652157616
177.0,0.3661865959704302,0.1355100200379941
177.5,0.39778437564184066,0.14544018164470499
178.0,0.3458517172131519,0.1289972129759289
178.5,0.6494931873834264,0.21735052619364212
179.0,0.43700502141919706,0.15745828572005616
179.5,0.32350727398641976,0.12172633252326234
180.0,0.3779089769278713,0.13922052952835395
180.5,0.40322707165153227,0.1471279546960421
181.0,0.3928901539345999,0.14391686845476814
181.5,0.3842304177244054,0.14120838839896926
182.0,0.39912957436515706,0.14585793666905603
182.5,0.3982931667915134,0.14559823533801605
183.0,0.4049678423610815,0.14766638399557458
183.5,0.3939506364213312,0.14424739448694535
184.0,0.3979005995260604,0.14547629114349284
184.5,0.4129174458238536,0.15011678755942526
185.0,0.408856806940916,0.14886685463127097
185.5,0.4074907883453242,0.1484455611902498
186.0,0.4184975249335426,0.15182858235348365
186.5,0.38913486200059694,0.1427444105896714
187.0,0.34349672167724316,0.1282366110302812
187.5,0.35287056581043375,0.13125624800690225
188.0,0.3103086384120946,0.11737360418379869
188.5,0.6202671499619653,0.20958662700494685
189.0,0.45739811311689094,0.16357820291112032
189.5,0.3163380091166733,0.11936742168335161
190.0,0.3546257429556568,0.131819324568259
190.5,0.3793580224084011,0.13967700509949663
191.0,0.3527946328806717,0.13123187155972388
191.5,0.3738675022704888,0.13794485076758695
192.0,0.3870046044295038,0.14207790280003807
192.5,0.3849456422756246,0.14143272811308857
193.0,0.37978359132130646,0.13981097591932712
193.5,0.3805846047690167,0.14006302615706576
194.0,0.40045876554800575,0.14627032618450767
194.5,0.3952548316181652,0.14465353510661572
195.0,0.3920033011329845,0.143640265204241
195.5,0.38830352348057745,0.1424844258897352
196.0,0.4046334410012325,0.14756300372815434
196.5,0.40298574263779324,0.14705325768182084
197.0,0.35885750830474733,0.1331739183944226
197.5,0.3412512450548145,0.12751013812046386
198.0,0.296215159535686,0.11267709632111121
198.5,0.556964442475819,0.19227869438387127
199.0,0.46743497247005056,0.1665588651338573
199.5,0.33124859853872973,0.12425916358302577
200.0,0.33944159256187934,0.12692378059363196
200.5,0.33760242561100945,0.1263270476461684
201.0,0.3408163980378898,0.12736931269269094
201.5,0.3403443170906862,0.12721637732306237
202.0,0.3612140988016258,0.13392643866064938
202.5,0.3533760332292039,0.1314184813476365
203.0,0.35940497845826874,0.13334885607689714
203.5,0.362337725574544,0.1342847831801224
204.0,0.36359331810233136,0.13468486442661295
204.5,0.3888173935114671,0.14264514695881966
205.0,0.3674012163121862,0.13589596187192898
205.5,0.3574612074716159,0.13272742748980534
206.0,0.4021718276896815,0.14680123705783743
206.5,0.3952510640874553,0.14465236240327173
207.0,0.35972366151849033,0.13345065508201168
207.5,0.3491659228211578,0.13006536326306412
208.0,0.3322907820119388,0.12459902306319613
208.5,0.47976159632516546,0.17019175205683007
209.0,0.496427095260864,0.17505556320950413
209.5,0.32863620751133205,0.12340608350227222
210.0,0.3319285039072158,0.12448091312862967
210.5,0.3282188225279267,0.1232696304443794
211.0,0.31522872132938845,0.11900128421260388
211.5,0.29843091137728117,0.11341884606708309
212.0,0.3438028856909724,0.12833556936148524
212.5,0.3240995036803041,0.12192062277401443
213.0,0.3293705471688525,0.12364605254573413
213.5,0.31906909238802283,0.1202675443386189
214.0,0.3363761614547667,0.12592872000336558
214.5,0.34598377893977983,0.1290398260399687
215.0,0.3711596640695639,0.13708802895946834
215.5,0.35409937192033397,0.13165053664829152
216.0,0.3722606189685522,0.13743660016897563
216.5,0.39882537536029566,0.14576350201795826
217.0,0.37868477086433855,0.13946497834121718
217.5,0.35029912285956205,0.1304299855449992
218.0,0.3623660098594716,0.13429379972655225
218.5,0.40690863590875925,0.1482658954382931
219.0,0.4765340458075016,0.1692434653450271
219.5,0.3574939425183831,0.13273790033328978
220.0,0.34027216205693644,0.12719299722878155
220.5,0.3159111667588542,0.11922657234130056
221.0,0.3105700428273288,0.11746023657641608
221.5,0.31021062511114295,0.11734111700740678
222.0,0.30811641921942906,0.11664639687406611
222.5,0.3209234442780955,0.12087764827991794
223.0,0.3061176438893884,0.11598229622768678
223.5,0.302536967668469,0.11479005798046352
224.0,0.3104638041007684,0.11742502994008135
224.5,0.3032707264527634,0.11503464041853709
225.0,0.319768412556815,0.12049772971148169
225.5,0.32083009283617336,0.12084695501837647
