Frequency (Hz),Power,Log Power
0.0,0.04321940196264196,0.018375655541753546
0.1,0.04321963684846666,0.01837575332521684
0.2,0.043220318266694674,0.018376037000934896
0.30000000000000004,0.04322145819510242,0.018376511554907975
0.4,0.043223054099525295,0.018377175931535678
0.5,0.04322510389095643,0.01837802926029359
0.6000000000000001,0.04322760849345488,0.01837907192475275
0.7000000000000001,0.04323057221750097,0.018380305717992453
0.8,0.043233994757620214,0.01838173051121573
0.9,0.04323787017155606,0.018383343828812557
1.0,0.043242196239985424,0.01838514474479293
1.1,0.043246983680162145,0.01838713771832111
1.2000000000000002,0.04325222859240775,0.018389321123359507
1.3,0.0432579246984068,0.01839169234345623
1.4000000000000001,0.04326407932944091,0.018394254427432467
1.5,0.043270690410251854,0.018397006508018125
1.6,0.043277755879678706,0.018399947723583582
1.7000000000000002,0.043285277109303334,0.01840307864124242
1.8,0.04329325782399092,0.0184064008074513
1.9000000000000001,0.043301689137834595,0.018409910518890876
2.0,0.04331058305627448,0.018413612768467823
2.1,0.04331992787079669,0.01841750267744804
2.2,0.0433297338316712,0.018421584507546985
2.3000000000000003,0.04333999733887499,0.01842585675482894
2.4000000000000004,0.04335071154065611,0.018430316561633825
2.5,0.043361887136963484,0.018434968375986547
2.6,0.043373516135483244,0.018439808864990945
2.7,0.04338560256752818,0.018444839700314436
2.8000000000000003,0.04339814555523949,0.018450060509949927
2.9000000000000004,0.04341114745474788,0.01845547226772744
3.0,0.04342460352481903,0.018461072993110176
3.1,0.04343852622067455,0.018466867862833237
3.2,0.04345289528733749,0.01847284843882067
3.3000000000000003,0.04346772356687611,0.01847902005830797
3.4000000000000004,0.043483012726514045,0.018485383407042862
3.5,0.043498756287989514,0.018491935780404242
3.6,0.04351495811640968,0.018498678778431636
3.7,0.04353161698065112,0.018505611879878817
3.8000000000000003,0.043548737835043635,0.018512737137486756
3.9000000000000004,0.04356631473635646,0.018520052068438854
4.0,0.04358434764680565,0.018527556647424975
4.1000000000000005,0.0436028397423278,0.018535252186275393
4.2,0.04362179476658583,0.01854314023273067
4.3,0.04364120841340614,0.018551218984354297
4.4,0.04366107780843372,0.01855948723440742
4.5,0.04368140602835326,0.018567946252327706
4.6000000000000005,0.0437021917185192,0.018576595463284107
4.7,0.043723441667595744,0.01858543768068089
4.800000000000001,0.043745146203634594,0.018594468868301215
4.9,0.04376731505204198,0.018603693060934755
5.0,0.04378993772024456,0.018613105880586733
5.1000000000000005,0.043813023585330596,0.018622711216470113
5.2,0.043836575438419324,0.018632510217068892
5.300000000000001,0.04386058434421056,0.01864249915176976
5.4,0.04388505133416828,0.018652678436589014
5.5,0.043909984897719044,0.018663051589965615
5.6000000000000005,0.04393537430010361,0.018673614132163844
5.7,0.043961238790742964,0.0186843740572406
5.800000000000001,0.04398754366269533,0.018695316912575675
5.9,0.044014322438928125,0.018706456629392527
6.0,0.044041563233335114,0.01871778824822075
6.1000000000000005,0.04406926789001056,0.018729312521107554
6.2,0.04409743284889479,0.01874102795189464
6.300000000000001,0.04412606068085696,0.018752935594433192
6.4,0.044155159207548075,0.01876503868615658
6.5,0.04418473866898683,0.018777341469716383
6.6000000000000005,0.04421475514934091,0.01878982566330421
6.7,0.044245231152298066,0.018802500610396854
6.800000000000001,0.04427616007271856,0.01881536354733137
6.9,0.04430760953233763,0.018828442579133835
7.0,0.04433949186868701,0.01884170123133844
7.1000000000000005,0.04437183319893957,0.018855150348120298
7.2,0.044404684650409414,0.01886881117202856
7.300000000000001,0.044437955311445,0.0188826458805143
7.4,0.044471711265638245,0.018896681934704118
7.5,0.044505885560973193,0.01891089147712406
7.6000000000000005,0.04454060796638955,0.018925328445491014
7.7,0.04457576947365451,0.018939947495676047
7.800000000000001,0.04461141480885589,0.018954767204031026
7.9,0.044647509887733985,0.018969773380045733
8.0,0.044684086474627606,0.018984979209397162
8.1,0.04472106074937194,0.019000349826739482
8.200000000000001,0.044758657663122266,0.019015978724245607
8.3,0.04479657779714465,0.019031741413531138
8.4,0.044835213093595616,0.019047800794069293
8.5,0.044874045422208304,0.01906394147581165
8.6,0.04491356266173572,0.019080366225391394
8.700000000000001,0.044953353373630475,0.019096904012057506
8.8,0.044993959287905554,0.019113779963329344
8.9,0.04503424871290196,0.01913052373251887
9.0,0.04507566936855207,0.01914773695373022
9.1,0.045117473234031404,0.01916510873410041
9.200000000000001,0.045160060012391874,0.019182805142880933
9.3,0.04520251346036173,0.019200445430195313
9.4,0.045245813483331974,0.01921843674890201
9.5,0.04528979429823217,0.019236710176202154
9.600000000000001,0.04533403632715901,0.019255091358653567
9.700000000000001,0.04537834292596958,0.019273498588236293
9.8,0.045423553082993194,0.019292280397992523
9.9,0.045468847378764596,0.019311096347310562
10.0,0.04551538088043647,0.019330426232950036
10.100000000000001,0.045562134935358586,0.01934984686935309
10.200000000000001,0.045609106461435504,0.019369356964156786
10.3,0.04565713439572571,0.019389304942501802
10.4,0.04570409454285428,0.019408808539000084
10.5,0.04575217188014084,0.019428775222145287
10.600000000000001,0.04580379497974476,0.019450213450580497
10.700000000000001,0.04585285170195653,0.01947058492387612
10.8,0.045900199541445634,0.01949024585412929
10.9,0.04595235203519307,0.01951190086058717
11.0,0.046001849084383116,0.019532452262072262
11.100000000000001,0.04605435712283271,0.019554252777078788
11.200000000000001,0.04610852022149868,0.01957673930060271
11.3,0.04615703676688852,0.019596880594691515
11.4,0.04621238720055715,0.019619857787574867
11.5,0.0462642053624127,0.019641367554365904
11.600000000000001,0.046322809888663996,0.019665693063591273
11.700000000000001,0.046378141901397586,0.01968865897067683
11.8,0.04643644941912473,0.019712858566105836
11.9,0.04648128700986131,0.019731466768332546
12.0,0.046540306783518365,0.019755959551498566
12.100000000000001,0.04659606670022507,0.019779098248479385
12.200000000000001,0.04665767159015345,0.019804661001118978
12.3,0.04671185550293604,0.019827143199345417
12.4,0.04677051357790815,0.019851480522326874
12.5,0.046829475702134034,0.019875942621419836
12.600000000000001,0.04689118419997601,0.01990154265548384
12.700000000000001,0.04694620304218519,0.019924366184878507
12.8,0.04700447419706497,0.019948537567041447
12.9,0.047068186947097,0.01997496463071288
13.0,0.047131392441090346,0.020001179703570085
13.100000000000001,0.047193584287211564,0.02002697281199202
13.200000000000001,0.04725286922279074,0.02005155889806335
13.3,0.047311882573292226,0.02007603097271875
13.4,0.04737875176419263,0.020103759096529616
13.5,0.047442971689148655,0.020130387003556884
13.600000000000001,0.047510460488682106,0.020158368545091454
13.700000000000001,0.047571937252362965,0.020183855866514527
13.8,0.04763686954169208,0.02021077417162147
13.9,0.047704121611968305,0.020238652405427694
14.0,0.0477723934224333,0.020266951525319755
14.100000000000001,0.047833020439934086,0.02029208028189578
14.200000000000001,0.04790356182523243,0.020321316527187026
14.3,0.047971071796031654,0.02034929454393607
14.4,0.04804123136140521,0.020378368716888168
14.5,0.048107233866717204,0.02040571842453894
14.600000000000001,0.0481803838358791,0.020436027841722965
14.700000000000001,0.048248309145686,0.020464170546828798
14.8,0.048323865869474805,0.02049547294473091
14.9,0.04838891015659826,0.020522418337832936
15.0,0.04846363172507223,0.020553370600076448
15.100000000000001,0.04854089519615787,0.020585373486793786
15.200000000000001,0.04860805718403997,0.02061319037667916
15.3,0.04868682409493371,0.020645811478346012
15.4,0.04876488217747987,0.02067813660357488
15.5,0.048832512448537486,0.02070614145676116
15.600000000000001,0.048902286726290885,0.020735032223916434
15.700000000000001,0.04898527342234005,0.02076939122853507
15.8,0.04906072611245478,0.020800628567452326
15.9,0.049123664410988276,0.020826683242041604
16.0,0.04921226689137878,0.02086335951276204
16.1,0.04930385312862116,0.020901267629929627
16.2,0.04936661279331583,0.020927242337739852
16.3,0.049454857412611575,0.02096376202441577
16.400000000000002,0.04952190042838967,0.020991505458642763
16.5,0.049611590493528444,0.0210286178200656
16.6,0.04970932345834374,0.021069054598518964
16.7,0.04978508701426047,0.021100398996593255
16.8,0.049851050061607734,0.0211276869508974
16.900000000000002,0.0499390085961669,0.021164071451395542
17.0,0.05006629172576755,0.021216717376512165
17.1,0.05009307867156278,0.021227795985983938
17.2,0.05021467314031862,0.021278081766078833
17.3,0.0502775516178268,0.021304083077103568
17.400000000000002,0.050359686145837815,0.02133804474517816
17.5,0.05045713638757115,0.021378335837501285
17.6,0.050583032848793195,0.021430382570606067
17.7,0.050472158207826794,0.021384546321273387
17.8,0.050703663573345686,0.021480246549822127
17.900000000000002,0.05075236968458838,0.021500378111003197
18.0,0.05091633956554791,0.021568144466690073
18.1,0.051142943607169984,0.02166177920479902
18.2,0.050942214420675085,0.021578837200300554
18.3,0.05109485531435811,0.021641910396211658
18.400000000000002,0.051239818482802596,0.02170180257705146
18.5,0.051416342720239684,0.02177472320367194
18.6,0.051578793262513474,0.021841819292507274
18.7,0.051609310840562014,0.021854422649974486
18.8,0.05075010186147215,0.021499440778710105
18.900000000000002,0.051694035233400194,0.02188941079030221
19.0,0.05199291122058965,0.02201281336510255
19.1,0.051973223110941026,0.022004685442090662
19.200000000000003,0.052234582676581424,0.022112571191227885
19.3,0.05192933889539892,0.02198656799406855
19.400000000000002,0.05199714313991751,0.022014560425843776
19.5,0.05223665337888924,0.022113425842572657
19.6,0.05247252514691012,0.022210767374374052
19.700000000000003,0.052511035678868334,0.022226658150756105
19.8,0.05261812281964341,0.022270842949749358
19.900000000000002,0.0528643608799498,0.022372425206681982
20.0,0.05291983614831541,0.022395307516249026
20.1,0.05299415995594202,0.022425962537868514
20.200000000000003,0.05295567901452435,0.02241009125716772
20.3,0.053058842763551314,0.022452639346468524
20.400000000000002,0.053054075793907904,0.022450673384821148
20.5,0.0530361882560826,0.0224432962470933
20.6,0.05312549725629812,0.022480127613144628
20.700000000000003,0.052779444559988745,0.02233739678534376
20.8,0.054661441835645606,0.023113068600696562
20.900000000000002,0.05407391947403881,0.022871067891717646
21.0,0.05403571461288806,0.022855326622750267
21.1,0.05451695833349757,0.02305356828739717
21.200000000000003,0.05421509807855621,0.022929231728351013
21.3,0.05443013393105186,0.023017808870732508
21.400000000000002,0.05410682433704328,0.022884624983986676
21.5,0.05472591300891167,0.02313961609538565
21.6,0.052114232563950126,0.022062895596107322
21.700000000000003,0.05349739332864036,0.022633465369474363
21.8,0.05502779319464899,0.023263900649901074
21.900000000000002,0.05656281955425249,0.023895323796944954
22.0,0.053891835255350205,0.022796039944572508
22.1,0.05446408726014676,0.023031793207472857
22.200000000000003,0.054109610478997254,0.022885772879483984
22.3,0.05441126969250489,0.02301003907382666
22.400000000000002,0.05709364702633995,0.024113462790165525
22.5,0.05400353478712441,0.02284206736226655
22.6,0.05515157180050268,0.02331485021983178
22.700000000000003,0.05672697385970131,0.023962793302928175
22.8,0.05524358216801399,0.023352719521074452
22.900000000000002,0.05917261455039754,0.024966743334862047
23.0,0.05622639227387286,0.02375701514613634
23.1,0.05232594664285199,0.022150278699154907
23.200000000000003,0.05678063713753026,0.023984847319034577
23.3,0.05828707224517236,0.02460349093249448
23.400000000000002,0.05707731526742281,0.024106753027422514
23.5,0.05629541462114855,0.023785394521404955
23.6,0.05669069733898637,0.023947884094033606
23.700000000000003,0.05705846566715003,0.02409900870233362
23.8,0.057359572635654645,0.024222701456934895
23.900000000000002,0.05867898136671935,0.024764290838142022
24.0,0.057382623308092524,0.02423216906945385
24.1,0.060361864383946376,0.025454100063094724
24.200000000000003,0.05853323683041476,0.024704498959519153
24.3,0.059773843955208225,0.02521319658414201
24.400000000000002,0.058198723388572876,0.024567233263291074
24.5,0.058040745245904427,0.02450239274144416
24.6,0.058412864759563775,0.024655109958861183
24.700000000000003,0.06141203390903822,0.025884007196385596
24.8,0.06207204763900557,0.026153978921275266
24.900000000000002,0.05195303610673258,0.021996351400442808
25.0,0.055688499050037726,0.02353579026157714
25.1,0.057311875063703666,0.024203109957437845
25.200000000000003,0.057836534993924965,0.024418562373127076
25.3,0.05869849131626845,0.02477229419469125
25.400000000000002,0.05772196882976942,0.024371524720550444
25.5,0.05781786539643718,0.024410897507667954
25.6,0.058547292268957524,0.024710265579462105
25.700000000000003,0.06024598048924775,0.025406634676054078
25.8,0.061031245024782146,0.02572817310214304
25.900000000000002,0.06016739490201806,0.0253744435124794
26.0,0.0635548313441094,0.026759884775969897
26.1,0.059285487674008444,0.02501302244204325
26.200000000000003,0.05970578418975273,0.02518530485053478
26.3,0.06030161646987926,0.025429423506093816
26.400000000000002,0.05864831177561095,0.024751709283816682
26.5,0.05793810383365061,0.02446025942899547
26.6,0.06227803699506096,0.026238202365982514
26.700000000000003,0.06189605497166284,0.026082007365428084
26.8,0.058533130490117116,0.02470445533027333
26.900000000000002,0.06453627299515839,0.02716046417100632
27.0,0.061234353290483746,0.02581130011448543
27.1,0.06383291364619183,0.026873422714957858
27.200000000000003,0.063769131214275,0.02684738367415216
27.3,0.061888988560778645,0.026079117333536073
27.400000000000002,0.06179777221486484,0.026041809801704324
27.5,0.06348098618735361,0.026729729624051044
27.6,0.06349873171800338,0.026736976318483492
27.700000000000003,0.06376046906098878,0.02684384724826823
27.8,0.061955130636438434,0.026106167471755093
27.900000000000002,0.06253151768011346,0.026341821312035777
28.0,0.06384957091648157,0.026880222752673027
28.1,0.0659613259227702,0.027741448365022417
28.200000000000003,0.06294485820449068,0.026510735455880095
28.3,0.06371353398187843,0.026824684949843455
28.400000000000002,0.06343034374918323,0.026709048243363388
28.5,0.06502009497418022,0.027357802191721212
28.6,0.06570979478196635,0.027638957332588778
28.700000000000003,0.06329101890345361,0.02665214562053606
28.8,0.06382938405635952,0.02687198180829776
28.900000000000002,0.0661569287626963,0.027821133658346247
29.0,0.06325593928360357,0.02663781733564127
29.1,0.0658798951948276,0.027708270550962217
29.200000000000003,0.06501234602473943,0.02735464230934767
29.3,0.06321614256236154,0.026621561776414504
29.400000000000002,0.07016442073861635,0.029450508090537425
29.5,0.0677579685306565,0.028472821190858484
29.6,0.06522165878782463,0.027439988217907073
29.700000000000003,0.06633746571156682,0.027894668389377212
29.8,0.0649956947510079,0.02734785214127326
29.900000000000002,0.06741447388763534,0.028333087437883188
30.0,0.06892984982842999,0.028949204898133348
30.1,0.06735156491279233,0.0283074911709875
30.200000000000003,0.06498940105344696,0.02734528562742586
30.3,0.06638519151317258,0.02791410556487218
30.400000000000002,0.06934139090574626,0.029116377348248196
30.5,0.06930336499478462,0.029100933508633287
30.6,0.06780099427743339,0.02849032091316346
30.700000000000003,0.06662562807222534,0.02801201437089216
30.8,0.06916022986967678,0.029042795698625157
30.900000000000002,0.07036643352096837,0.02953248124849058
31.0,0.0700019705942732,0.02938457751458425
31.1,0.0687207508160914,0.028864241950968494
31.200000000000003,0.06629253713869535,0.02787636963970694
31.3,0.0702493101875282,0.029484956588714077
31.400000000000002,0.0716260123366547,0.030043247001456115
31.5,0.06708365416376123,0.028198467332252165
31.6,0.06823160868090122,0.028665424478088994
31.700000000000003,0.07124290898588123,0.02988796016019703
31.8,0.07186023907999282,0.030138160959951064
31.900000000000002,0.0716275296872662,0.03004386193290003
32.0,0.06947723472263855,0.029171544457276835
32.1,0.06985707793247972,0.029325764216928323
32.2,0.07162318176539145,0.03004209986328506
32.300000000000004,0.07100945447479491,0.029793304639614247
32.4,0.06791263018779503,0.02853572293648821
32.5,0.06562896419065944,0.027606016271818853
32.6,0.07103451147102625,0.029803465136195823
32.7,0.07077571002619051,0.02969851088878432
32.800000000000004,0.0725688252435438,0.030425169821286607
32.9,0.07604088576576228,0.03182877330538254
33.0,0.07194877813032768,0.0301740335779936
33.1,0.06859387367529778,0.028812680012862007
33.2,0.07560766317023848,0.0316538876947123
33.300000000000004,0.07312720695461783,0.030651205660240884
33.4,0.07631049379475989,0.0319375745736093
33.5,0.07047462287115333,0.029576376181919377
33.6,0.0770027185157389,0.03221679952351021
33.7,0.0777213711145741,0.03250649496169122
33.800000000000004,0.07654300085537766,0.03203138173147986
33.9,0.06786859655882195,0.02851781514533019
34.0,0.07628064918640208,0.03192553201850781
34.1,0.07870399400952394,0.03290228675444838
34.2,0.07632560864012952,0.031943673415797805
34.300000000000004,0.07789303888592808,0.032575667227038266
34.4,0.07268174699159734,0.030470890626815374
34.5,0.07240429415854413,0.03035854433138123
34.6,0.08567233039749304,0.03569876947673873
34.7,0.07333535271328107,0.03073543406133286
34.800000000000004,0.06763240944049778,0.028421748917953238
34.9,0.07340307936120266,0.030762836849712174
35.0,0.08240645135658574,0.03439037207831038
35.1,0.08243776133319919,0.034402934414198616
35.2,0.08076940085779521,0.03373304028235797
35.300000000000004,0.07927208300519202,0.033130943526296544
35.4,0.07780742484998976,0.03254117105836691
35.5,0.08448586860584613,0.03522389731241788
35.6,0.0836348518372821,0.034882964354128014
35.7,0.07939922067912104,0.03318210017084817
35.800000000000004,0.07263545360675766,0.03045214751359935
35.9,0.08100546800325138,0.033827890731879404
36.0,0.08401943543672617,0.03503706875887751
36.1,0.08382364412728749,0.03495862111999943
36.2,0.07466402787007298,0.03127271202113889
36.300000000000004,0.08581308168651887,0.0357550696553078
36.4,0.08608459046231093,0.035863651901369496
36.5,0.08074386523141651,0.03372277896978337
36.6,0.08108482921004771,0.03385977296570532
36.7,0.07801198309884728,0.03262358846183368
36.800000000000004,0.07707570431354131,0.03224622958410509
36.9,0.07916356456670291,0.033087273974124934
37.0,0.07204194743354832,0.03021177899714539
37.1,0.08916958934953362,0.03709550692236565
37.2,0.07880695595650954,0.03294373804391363
37.300000000000004,0.077211946781525,0.03230116129398614
37.4,0.08151686215303018,0.034033295002965515
37.5,0.08636102652455306,0.035974176791972144
37.6,0.08046001870762037,0.03360870090374155
37.7,0.07748697834815854,0.03241203032630773
37.800000000000004,0.08390241668214887,0.03499018459707829
37.9,0.08068378192127182,0.03369863395610092
38.0,0.07931223800113474,0.03314710142477751
38.1,0.07913424071905294,0.03307547283603166
38.2,0.08179541173986957,0.03414513512020539
38.300000000000004,0.09137594666134127,0.03797437793588967
38.400000000000006,0.08507194445755072,0.0354585345394425
38.5,0.08527871210282482,0.0355412843452206
38.6,0.08460615720299212,0.03527206555369893
38.7,0.07389440093409891,0.03096157806151974
38.800000000000004,0.0943293541870601,0.03914804885243333
38.900000000000006,0.07986965558282909,0.03337133763752382
39.0,0.08333848776569289,0.034764172600324876
39.1,0.08677644202859323,0.036140215678982214
39.2,0.0917882123891469,0.03813840108737812
39.300000000000004,0.09025108077933645,0.037526525867151106
39.400000000000006,0.0884808064052229,0.03682077536536103
39.5,0.0798288963632626,0.033354945068171396
39.6,0.08905271940829876,0.037048903808970586
